2.081813604443577 3.7407023822598493 0.007478790230003862 1.8457811832454252 0.23752726630436483
1.8009199567388507 4.376282392918298 0.9564730360873019 4.932867562401313 0.4678621381540732
2.925641165213171 1.6298530845972308 2.255466635542051 2.9861041095189167 1.5652134130031448
0.05104121689676944 0.8068593476009234 0.10738771007301529 2.4086512929413533 0.6993789013137214
0.6135191045798039 4.908576922204138 0.6997578691533912 0.9260467785931553 0.9139618840874952
2.407259950425739 0.668316204716739 0.6725828232885928 4.80511343192041 1.4779044983993195
2.8339728349343094 0.65822861772945 0.7513493830293949 2.901344631160396 2.536580494955269
1.8649388118351218 3.490959602426566 2.920385805341532 3.7554785508698014 1.0282692415988954
2.4135588099276637 1.3016393079865507 1.895417127179659 3.6322255725860835 3.2216336285027203
4.036171412844144 1.9124495325588409 0.1695975400476485 2.5988501524363867 2.7199830682970227
4.704554673920451 0.3979340571203549 2.941806820725038 0.07908452714318226 2.207726682103872
1.7369131867993 1.5218084126160436 1.1373078228412599 1.046645970193811 0.807424872161216
0.6366361453824632 3.9483721352709527 2.582127056565917 3.550778595355145 2.7179017764351254
1.1103359411311935 0.8245582070264773 0.23514695599998414 4.308872111455218 0.682024948688642
4.911517796848999 2.9812438788766666 0.7778789117824303 4.608523746613193 0.9971121436973601
3.8296865673292952 3.7987015632552135 3.0605485363442204 1.061162442097947 1.092821021671409
3.6135193991363233 0.7303175535795942 3.538663858520015 3.0664496391462635 3.6795877363218383
3.691781584806142 1.6175245917473524 3.8880637621042435 1.7123005838444878 3.6055446429807843
2.0805016675674795 0.8915155922336088 3.378940334372463 2.279763725405111 3.9544250830075782
4.5143296164388484 3.6782365338498924 0.781710770863257 4.481998768495811 0.41150699650836176
1.2973975961601298 2.537897853927973 3.0693526912578886 3.2200501593019815 3.027482169711772
3.3939584626500103 3.4224122657071794 1.0196844730082328 1.5202536516400582 3.54308312490136
0.732846201306594 0.5202372158313617 2.038425771537049 0.24710671075598545 3.0402649453154726
0.40390520823678333 0.6555873168216569 1.6465572097613868 4.347415098790735 0.3318076318981861
2.4043760651070696 1.370946840046245 1.2564402958117826 4.199885137131675 0.08655804552383739
3.1951559695736638 0.1078669275783034 4.921664618632027 4.725004123385455 3.849731280450846
3.1957400178210262 3.5476841642480834 2.7371760459075762 2.008174359055875 4.066843273275885
4.09809156742705 4.668768454500426 1.197597356269677 1.4640880780473648 4.920186681105366
0.8625759398018151 1.2522012400612441 0.8774581245617119 0.43320860469093114 4.999353219120449
0.07858298014675913 4.5179455733045994 3.5147145182857624 3.7829358071152113 4.178763715230134
3.358131267291845 2.011389378946661 2.57590939222359 2.920057073499493 4.4699677142723395
0.3408905778233984 2.5833527206199163 1.9063435687184727 1.1938908181808867 3.5423073563440703
2.5120632580032987 0.32721395032065115 4.731175870261225 3.4633599091019063 3.6827999986344095
4.695594043947535 0.23563801891954617 1.6213585752675719 4.85188097643734 2.1529986339369422
2.737487172305368 2.567623654030302 2.1352879456133174 2.2044553840126326 3.6680166168010233
3.2325247424644816 3.3706132280145775 3.0512394039835753 1.7229957516596413 1.2165016078942297
3.4116955721254842 4.554823480728379 1.5028640114045733 2.0813323817108538 0.7000306837995751
2.415052503012462 0.848840648191177 4.7803044282190985 1.7122071656759552 0.5889019018207842
1.2308735905577524 4.7744556112345835 3.669966790798915 1.9476106739993804 2.8119545141446975
1.9130208931359183 3.4996374517023 3.8171337743884064 0.19451736996034086 1.0097599194813918
1.2319037464634803 4.502789010463773 2.0410853310596737 4.092168303294063 0.23851280423779486
3.24799922679658 2.0020911744296788 3.9259329968006695 0.9149728958451153 0.6266283397371897
3.414804099829633 2.968968635057936 4.811553579144618 3.4032714063671876 0.44597788385401904
3.4550845432065405 2.5824471325237868 2.5830240594989604 3.5045518774669366 1.0396139096332457
3.0483154180677188 2.7679127598329325 0.3932968318840696 2.9445476440773444 3.2829028114887535
3.692416009885297 3.301910282673168 1.6290978356556118 4.431480065253052 2.8579909287636065
3.2281317164860877 2.839730760084984 1.5661606810753703 0.23102036808163917 3.791452163595615
4.937656693275202 3.839528046578801 4.155778876044875 0.4777569302175638 4.71839123962151
3.8783448063552406 2.195223520022587 0.2877245708374465 0.9349442688829007 0.9423770254044567
0.9035659818577124 0.2783374140079087 0.6895386711368656 0.18063403875771267 1.7003425449250438
1.3298004489324304 4.9769749285911855 2.99031695726598 4.100439594022546 3.6998550152212144
0.8239770832401144 4.957503842682456 2.250358425543064 3.0185837679416183 1.9338551808089592
4.298808639763318 0.9010383196511845 4.167671372832531 0.32205294084100944 4.058219160177763
3.7268857052099396 3.251888740965167 1.844929508666131 4.652149015431119 2.6379157534889996
1.227200100253819 2.4592082499875985 2.710311928854179 0.44165319300619066 0.4096259268487473
0.29510428628438834 2.924461057035675 0.7031178519570491 3.6477183714206225 2.5758675707871737
3.9856929150496807 0.029684701866275476 2.7157730244979295 0.7758543434935805 0.4637500293258745
1.9854198363605768 4.791663932947657 1.7443626256128197 2.5991419696265856 2.522921192474461
3.7939053805495764 3.092773543028075 2.6952416225738207 2.7625176732537238 3.785751407541818
0.5155646599629143 3.31513894259213 2.6803665262884473 2.0513931089943807 4.932011315245654
0.3319282853886302 2.1749863625643377 3.7562137616504643 0.9606817024478642 4.411884302765661
2.7150651413499682 4.682046996150073 4.935909167177416 1.3099882009602404 3.7416960079420853
4.308320992205271 0.37189235547787136 0.9928899094590105 0.7590056697264613 4.319215495303656
3.850089199080029 2.6991306818823793 0.12732681097749665 0.41033320386323013 3.176754812185394
0.5047380317050992 1.3584822971579669 3.9625614884110716 2.0972124790525286 3.5372353431630215
2.8125045564463083 1.2174358902790643 3.643131965700012 4.567652394344451 1.8168414281346856
4.202873992101943 0.14914408039668148 1.7299551185943423 2.8208707498096692 1.2541430640366809
2.885434120485626 2.314170365772898 0.6111355583408268 1.859989063800736 3.3137444785613552
0.47330605977918827 4.09455363389961 2.2311513474538707 0.312766263557423 0.5610102582205545
1.0792860544431941 1.3437061419541596 2.1048952038466724 0.05111170932382614 2.6650767701057005
2.9753494292326965 0.8724231720538733 2.7961785405196493 1.7512040513164462 2.950034963482136
0.6974281669050325 2.1988545608185617 0.8936214462118147 3.5535578360437556 4.460004118779036
1.4519903215451841 1.8369996794122678 0.8955879966215935 4.44215324185747 1.4758467319723518
3.022377982983857 3.634484221127906 4.590544451429884 2.2145312047605055 3.0962623785278165
1.8946764801267397 3.89122624645474 2.1169310784008424 2.7526405382179746 2.6471735377887153
2.4834496652216216 1.1635211158715897 2.5083825382858196 3.910907610605486 2.46547798639744
3.2549932657939333 0.6823244654574129 2.464663869111684 4.143590920122099 2.648830659613818
2.6194686349587597 0.40505549524990414 4.166620311601648 0.4652256362034146 0.9356719289353216
3.7853084629839 2.642261964957334 4.140738773105298 1.4222839481133354 3.9405296758568227
2.227292546493624 0.514115015979264 1.8196895758106106 4.123750719939576 4.116778183296775
4.637818021389652 1.9374376335359267 4.52189791110708 0.02887916823272829 3.607824247127333
2.678415752246459 1.6462837459245327 4.963842650785351 1.4183308615559476 1.079449241337982
4.22715361441298 2.101892095676527 2.6134963747944937 0.6972667757345324 4.589751102420875
0.7675932083061743 1.653312832370929 3.878369460998223 1.7534966000191217 2.8742487203026688
2.472337173637679 1.9079973887314834 2.119432105324042 0.6424443042726785 2.5243942058843194
1.389288554718036 4.823981895436776 3.59086530085009 4.09231053305834 4.291497261858279
4.808328538012127 2.7300090295241235 1.5257247813531167 1.5871324863431764 4.245455851925514
0.8913190334881033 0.6884428370461826 0.22822109566476845 0.6223496922729888 4.824144778722975
0.5351556129324708 0.5358393075192469 1.2009840687284512 0.15266677208041257 0.9059376476248043
2.8303445224487978 1.6230601072669253 1.6928103405497552 1.4716970214330172 2.9778399649816825
3.2807785389834803 2.5909402646026503 3.6265052267285824 0.7818840674434746 3.323796353013714
3.2802487428002185 4.787862960501527 2.160714872298153 0.695406863708779 3.8057386714713246
4.196285312543262 3.3357375729141148 3.3542785339325025 3.1888839936987163 3.9069082591848847
1.3594521001070636 3.501407479029672 2.3119679211022355 2.351213657834355 2.428628098288134
0.6339471408906616 0.9539883264823706 4.235468653549146 3.226578807702065 0.4170681946921656
0.20524286534694514 4.595272153485923 1.9490539510194216 3.3832719100245665 4.911048427130711
4.452383080834677 0.05035297031160402 4.616128228690214 0.4263441077470759 4.791837444362124
0.026007892976495084 2.120268292614923 0.19961269227593226 4.178641129820645 0.5297907434599214
3.1224736579034307 2.3011647921208263 1.3672408145321975 1.7058221528757604 0.8527737764662741
0.9422203271772456 0.9054204237065855 1.0159441406755727 3.1595924440827092 2.6608621435374054
2.5051268106037146 0.2729507826278432 1.932966171633876 1.5305973264862727 2.0024814396938186
2.9837559852952893 1.9319252413105819 2.2150609625636513 1.6522485570413203 3.9794968470177174
2.2705158669133114 3.8093819896134677 2.212554996556438 3.8090974892714557 1.3334279649891618
3.4932653205871267 0.03789669932491968 4.562329555433992 1.1161773917757394 0.8635258482466857
0.7333328860292532 0.15301723576689297 3.7283796610275455 3.9920115452367924 0.18406374853404406
2.505794305002879 3.295899959017912 4.021757278179782 2.8294525152185286 1.4612797349250521
3.731241958000652 2.7903106194857 3.5341364446152563 0.49181316519115614 2.4476927144685168
3.6911276408556897 2.844171113193342 0.5825813310755346 3.424507504901661 4.776641407891028
1.6796020492449404 2.788372735890599 2.2068070246480653 0.1345324961532668 0.2445493194972631
4.99947074646288 1.5683762710009541 1.763171830553788 0.3882108089277303 0.8587571712489711
0.7477451898145976 4.178132511746654 0.6559585295658821 1.919473429688951 1.1261896316812452
2.678025986632128 1.1682650672318844 4.358612795763158 3.2085759235435924 1.3208059398476801
4.967882520578825 1.0024324304491616 1.5065041542006825 2.19586244189887 1.5636746078347756
2.6182556897632843 2.841637021839724 3.126870539641305 3.3948947174114257 4.695929011603287
2.371032042044021 3.7865690090556066 0.7069324502946078 4.739000179114044 3.862823363828553
2.686022371267672 1.6336516013530489 4.620523368968615 3.0903832274140948 1.6052881400670511
3.4317591569085804 1.1087748936337167 4.175801784481601 2.2017880457412082 0.10371644863864882
4.371822666230699 4.726946230876409 1.680597800779235 0.9692132742021697 0.2290948375497115
3.67504061386315 1.1375294339002362 2.9227959000883796 2.1752079064765284 4.005142460427785
2.799776256846487 4.156114289558927 4.644734081592769 2.4662263256979133 0.6106571651976722
2.7220818949312697 3.596899272985051 4.204467936126411 3.076646006386858 2.3662441941685546
3.0157697183801604 1.186799392352011 2.8805153559526664 0.8280465739780324 0.3947811210432711
0.39048281613705216 4.617184526469006 0.7895386141496413 4.744334110417456 0.06730697582718659
0.28034954206644924 4.739369917318269 4.452225753313057 2.189783068107045 1.5262513023082835
1.078739750760207 4.9394871042327875 0.02197286930159026 2.9430805703403324 0.46801094410292676
2.399056854574688 1.285494754206598 4.258088521706859 4.645884061375083 3.6963217902577012
2.759341780387537 3.4533607704752587 4.4559156421652695 2.555196723500175 4.6544203589658455
2.9138746544948972 0.4496631763231651 3.1454366349215492 2.174403608539708 3.2362539564802195
4.610136427133599 3.5637387788657042 2.918320507784917 3.649413829977248 3.8946246730137184
0.7856664213248787 3.0559243695553144 2.732492882263038 2.925588404623273 0.2827885567485594
1.8404902249376671 2.586578263273106 3.596466216703116 0.8561893125392739 3.103327977362389
4.374842317950357 1.9167534385298652 4.124847196692257 2.218180803510812 3.1290331879341116
4.298348992337205 1.4396666319108797 0.3438557888232907 3.432095639639044 3.4280409672331533
0.39198781997231535 0.39424853413497996 1.200078708439818 2.9730628983394656 1.452362794490802
4.277181057777346 2.6438346761147087 0.6600262943995311 3.091179940547459 3.51854672659452
3.7100541337356314 0.6996161377017868 3.092371151180575 3.5424866531060326 0.3662469302725191
1.9905063613373608 0.08791509995945412 3.394827806999094 0.9211754694281937 1.2275738404737357
2.0206908600206583 2.05284161879963 2.5798746918052906 1.9859379162858333 0.3555676750752079
0.2096860330725009 2.546127551105241 2.6674117720939656 4.031326077733479 3.6155771695788235
4.325577354578525 0.376463083741862 1.7403471171330065 3.815537875574776 4.972228908911321
3.9146338537342515 3.5698619995708087 2.152155517875883 2.2337696224478236 3.7737594521132873
2.6620985130111556 4.7287984331845 3.2442587267729146 3.5070368838775643 3.8621472465642626
0.6399299336762415 3.522006554208205 1.999066970753491 4.993282972083433 4.367274498382824
4.165777679365041 4.048153666177244 3.948017875856614 4.867187318358786 1.0615609834722322
0.5085181938859745 4.344725658385116 3.999964876521699 2.5393754793905927 3.434667923991533
3.5445375146743614 2.9579917486468448 1.7273282191007966 1.0616127080192412 1.3162564783197028
3.141963600047239 0.5506044046382552 1.1287219187478148 3.597342212114411 4.829692907800367
2.9113696171951737 3.494338961153219 1.1512413545231304 0.017416382825999888 1.0486201421123504
1.487377732338372 0.7556383954352458 3.102131428876781 2.5029969655889026 0.7655646254697468
4.868600645619432 0.5545936344907637 0.27976762824529877 0.4904808141648076 2.5943307403558875
0.7148392575612728 2.9761025589409655 4.930649484512332 1.0277787853001508 3.0332006838864127
0.3630868689906319 2.9659027074028503 3.4520705635083733 0.8073251318282443 4.955538694216336
1.1178308695301205 4.87572093726124 3.500560779057868 0.4692771196900286 0.42362485787665105
2.055601847375326 3.8155438280841087 1.086985162588282 3.6334559273644884 3.531762086627563
3.2386302442313433 4.0120735521272 3.8654513568565543 3.037314372829727 0.28560737643668344
4.336067111142013 1.4435458749582186 1.3513455127744627 4.2038823588503 4.162633205053191
1.399696269533266 4.27833753048224 3.334504565425122 4.237366989235121 0.08180711056177181
1.8740876929347439 3.895767597797861 0.7293818319438111 4.507298905789173 0.7883226384840258
4.9363229227099525 3.015510928113444 4.578563765243038 3.172368273005348 3.624656193531799
4.18252929074461 4.934511531048083 4.643863633642312 1.3714906174819663 0.12505180137947325
0.54255354931737 3.114298764723914 4.824191991669451 0.4399310716939292 0.830068660447108
3.9827784591640136 4.734815780717753 4.267203222906885 3.8494499417900907 2.7130328268287034
0.798976178580898 4.056651320256485 4.2364277706566655 3.90114155919007 2.2303575000471447
0.7931956692681619 0.628434054150408 0.35486791948606156 1.390229751656669 4.7087905925011455
0.1931242218445628 0.9517579242208252 2.954046813660244 2.6961201880606915 0.4747738149147801
4.321217542749264 1.9434572752685841 4.928024132858006 2.4903827505660154 1.3394808719272722
1.526707097813329 2.57794267993797 0.4019348177633697 2.8776171709242364 2.9196984837046625
0.7305212978091213 3.2037295121939477 2.340363540523719 0.789688112659066 1.058426151068581
2.8659932556998964 0.356897471418125 3.1843056039427564 2.203411885400034 1.844459777552541
1.6005454788533435 3.843685054893784 0.8179706409785475 4.4129708503215435 0.6390984967939756
3.3098745346240377 4.976067816234265 0.47346719547835814 4.458641459187731 4.346827988060219
0.0015125789504077947 4.316910817420137 4.299346289292184 1.1921096437501577 0.2166979990455059
2.126273021493426 4.291401885994791 2.420617952772719 2.4433365929510478 1.4402071947331425
1.8270110884075685 2.5729031693919273 2.4355244993450906 3.458239127546516 1.446389302144333
3.299458436489023 2.913485074478115 2.156907119105887 3.3455504215069407 1.9744805085220047
2.6209398959885872 0.5610453354535638 2.739106718429654 0.9170639490350863 4.922706102690872
3.3020149219784667 3.465317665120815 0.13876999554527258 1.9788151122036628 1.1385920751146767
3.5323505615516493 0.034785458503340805 4.856939673964071 3.225516985227732 0.04911249457571598
3.500592496526883 4.199866842319958 2.204683846539135 1.0342046036821868 4.753886805419932
1.5891276768182028 1.0954285139492308 4.384359047281364 4.5669680768467344 3.5242133213494093
1.3730512108202997 2.0044085194976855 0.8535128203124243 4.6228144476035515 4.682472363830121
1.465246875706514 2.1305416928171765 2.9362051948769734 4.242892063654008 2.807875120180156
0.6066487693681205 1.7599853141942972 1.8630137784170941 1.9142287408466525 4.897383388594575
2.864909079593599 4.346037252234172 4.954161678008021 1.0735092297616622 0.022571182805548595
2.355063280708766 3.873729337501646 3.788138105181766 1.4277115326476482 1.8739802883263375
2.383711456761909 4.887283201837697 2.3994809132972112 0.19158473431495016 0.01575870814100766
1.965302788157886 2.1451390570468676 3.8791521469346457 4.317755231424833 1.9311110656533603
4.010554076888232 1.092374550725288 1.126625822630078 1.944951122627467 1.1552801741497705
0.5788655854416985 3.2570443022770497 1.8731587160151815 4.086100818319133 3.4014856418879096
4.651657491594351 4.809643579267796 2.76193239360915 4.714354391414069 2.994755814761794
3.965427653739168 2.034415768006996 1.3998278344752335 4.5015139145532315 2.3059323083228946
1.382183987301171 2.9845157750906424 2.149169578473586 2.0239117900132126 1.861079762383289
0.43770810628116996 2.8075406082982095 1.3884462972094118 3.655386198667203 1.8931547813106497
2.6892231727533265 3.6106968387774305 3.755917840028959 1.8673207425231424 2.6522835541234318
3.390134077996522 1.69967222836849 2.359573677740245 2.529914535902237 2.4805414894931483
4.545239369258739 1.658237671624112 0.39794627698967133 3.291900089218222 2.442253455458177
0.8225637243221173 0.5726607127346023 2.194419965382211 2.3717760746088596 4.6515622142879405
3.578382351146864 2.5180486974604444 4.660103414324598 0.7078982077437285 3.1329275798686695
4.943715487048451 4.310659022853355 2.56956881568666 3.1621022771833602 1.8512435742796407
3.4265838426773576 4.928093058269271 4.432711880667549 1.485744730242606 0.2781501986290885
2.418919355784233 0.15230207600614443 4.392423050648487 3.961782068238323 2.6636253945199018
1.7777090273012948 3.1954000308716735 4.531830722704046 4.202905802486015 0.6890512510565006
2.345503785036634 2.658334205458282 2.282669297439556 4.834788888980565 1.3416134442317529
1.0566731367337927 2.4545251708493727 2.5256736516124665 3.5290279818367387 3.3577648149860853
4.503311037524783 4.839928299694545 3.563577216186066 1.7261171237623656 4.23273409006558
3.1369844841799326 0.21411751221532938 1.5803052334542493 1.0589226246136973 2.4645069476675463
4.315103636500173 0.5041111431652273 1.6581604676679607 3.204398274651844 3.956448127520149
4.865910882897136 3.110739531612042 4.832596333972071 3.3344440202484487 2.186811113020997
3.3477930186364295 1.1550566155686592 0.5500154570481647 0.9692535783649642 3.668306766391063
0.14514666929342668 1.436937645008718 3.524804635546175 0.3872807118507754 0.7072159969580449
0.843705059735716 3.733551460182485 2.392657049593638 3.050358573658895 3.5843016987758554
0.02532812140766616 1.0350749932000658 2.8681953804003566 4.937190671511768 3.4157650438853775
3.9236924931546873 3.2282817595932616 2.2680601783350776 3.248359973127691 2.1926226094545473
4.2422126319616895 1.8314000394079706 1.8116594117937335 1.9589749170243071 4.799154306830066
3.5637985180646625 4.293475286965388 0.05899524961639202 4.941605822925961 3.1878549843807047
1.6797712014194714 1.4881489329862296 1.7396069568428723 3.2064105921229884 4.875909593374336
0.5460544451762622 1.0777695344130782 0.23777828281409286 3.271414382359044 4.2687291611163305
1.8272741659036773 1.2794515160886033 4.208686712756529 3.8464637273380076 2.6508311696168363
1.5049879034007874 2.0335099007324016 0.615841642992418 3.8516933758081597 2.4263594822537344
1.9069208430889577 4.271542399715462 3.870922006303699 3.23698006477316 4.419368678219576
2.9972000051683563 3.6262874788140524 2.2650001278513976 2.8768691802680197 2.850514804199924
4.8605724439283975 3.835408244876986 3.320468989008505 1.9609528613706169 2.8143866309556036
0.27243692659837393 3.4906560653496745 0.4699905858511322 3.358616758889722 2.558547128315349
2.7332410862321392 3.8591907544428397 4.759157958862829 1.0674527185147316 3.8653922183846756
0.07805436641181662 4.061994384758198 4.108440676601562 0.08657780150497396 3.955005708228449
1.8299528317999996 2.7869829206414516 3.347899595937779 4.349924461325784 3.3306349945962515
2.343906838993264 0.6954452812051443 4.2388982279217515 1.460887786839955 2.6566163366863798
2.7654001048756562 4.057736531968542 4.331034329737024 0.8734666236993216 0.986933266702012
0.9237792621848301 4.977615821733931 0.12295863830456721 2.995361653282909 2.697912108887079
2.536363568989837 1.0023303190515094 2.601442330995232 1.8731343367355775 4.960348203028976
0.10588090603360412 0.4910532127769035 3.4121253844455035 3.9497861262455864 3.8205142818060556
1.962715749615977 1.5926297330765826 2.8193465220326432 1.1395262726928617 1.3682066762134788
1.2193062607725453 2.7212318397108133 0.9298186209976944 2.5179711505454874 0.23226509002205964
0.10728640703860814 0.8840894436380686 4.8614640998700684 2.936570803199596 4.343032450681962
4.822856084194381 3.7735716185645525 1.582844646863617 0.234259551447778 1.2365515829280749
3.897746819157242 1.8004972951020959 2.316507460521318 4.317795894822035 0.14154911598220354
0.7894206470885234 4.030637410298234 1.3701131510859543 2.826431028847728 1.2232018503118187
2.0287020691712385 4.548859571685525 1.3107749510971922 1.2213727914027939 4.666924226149282
2.629875363536512 3.2665972304839093 2.674645676594143 2.3247096493127817 1.760899355576007
2.6352345830176866 1.7743223581307261 2.1306659476679286 4.571859232063497 2.4065470662460875
1.2510651081349433 0.8317561472175639 2.9773825575192445 1.886300246523474 2.6334508754914316
0.9845339370380879 4.113224812736767 2.696995763344035 3.302865858514419 2.403534202804773
3.57181578725331 1.2605733689031462 2.287263805101287 4.726672289988772 1.5915931971823887
3.4394501908490787 0.23817241200652262 4.159175359442816 0.5812612678097734 1.706384678920907
1.8479783266954235 2.9628419545815032 1.8486649662344379 0.4319726380921268 4.055710481764426
0.9633948944373399 4.96073380250048 2.3621390227408856 4.628314532998824 1.2716753991437701
0.6921895836310921 3.683758239985882 3.314497294818194 3.001121531146599 2.060054132912774
0.949535620861332 4.639003394971759 3.1157293805729784 3.8230887688747988 2.5962551871133233
0.09216048589129833 0.22497795254166064 4.3916863108137525 2.2943365764230332 3.5500768489693297
3.3149125102390196 3.283189941836508 4.362862756631464 2.8983913986139607 2.7041375853722034
3.159333849753682 3.104546244774472 4.713484090180333 4.125389742994489 3.596149967135136
0.3017119342323238 2.297943032842179 3.20329061398719 3.3819509067646076 1.4226951508899592
0.5499869061645551 4.878461904220341 1.3560267390148961 4.3754084137802876 4.207092320788309
1.71106506942589 3.744032746329495 3.0843567320083833 2.485092805608123 4.432809243009633
0.5995794085211975 2.9820210689840425 0.5871793583136026 1.3593885128596823 0.6251184527864417
3.4382411514947773 0.658504295211641 0.7972034106823361 2.4836302686846135 3.7529336900100234
3.364702711977305 3.887841671360624 4.344197627305848 2.2732333903891155 4.874529357946172
4.900690153224816 2.0662247482881058 4.1899487423588075 3.638360387241633 3.4466579347050437
4.310111378951903 1.9030854798310992 2.257096171899548 3.123974489430194 4.658147484959986
4.38759609617699 2.9900751961786147 4.292192619706699 2.4666365763797997 4.32960931366102
2.5014717396624193 2.412011230103534 3.2137048341934933 4.307220469899677 4.387130424040089
3.4985719273023363 3.2413829449475573 3.083458747461363 3.991763570098559 2.304997550971658
2.0170272141482357 0.10418575340316649 3.3165198106384115 1.943081146143243 1.7380642818089376
0.27003964011000303 3.309773726401593 1.472122106922515 2.241677857226291 3.971865729359899
0.5491760040074434 3.4406560687543215 4.67441654112261 1.5150944521984389 4.555928719082677
3.453176965077164 3.5106298260619933 4.488612794395558 3.141839953433313 3.190338645522412
2.9716784791125264 0.11809103010868793 3.8662067096881807 3.253673007780171 3.623418915493048
4.72163561028999 2.588577722505907 2.7626030067632734 4.16667746906639 4.693992833931491
4.948039793622529 0.10515900529784128 3.3615614778598832 1.983378018233715 1.0768550334648412
3.988415862218088 1.632576683985315 0.6335579492714438 4.687235414779989 4.143445300474669
1.4997746124039741 2.558133572548163 1.4898379181541395 1.6142620760566018 3.5012777768734744
2.1709856619782837 3.0630931464763345 0.02366394315493181 4.29949327183855 0.6831920953682652
0.43636366799767845 2.424694511628021 1.6145338288973092 4.2789074549451085 3.2548018345626413
4.054532426815643 3.6609459237126303 1.2120820690896945 3.205549775406769 3.877713915700351
3.324423961016494 0.5718835370818065 1.1213706749706436 0.29950958305861863 3.8589781673337558
3.0273635966042494 3.4751968882718716 2.074648999121369 3.5896598874544616 4.462950970780364
2.3175217384271454 2.494088999820347 0.6820658936761026 2.675973338972639 3.84776442753459
3.374966997563188 0.22304430696671818 2.6632770757496145 1.8400397334367042 4.669588075434018
1.7138755204904603 3.0854288522624347 4.992366746268183 3.8650869698212738 3.8240162994966775
4.565702884972746 2.304803772648346 4.479198608285732 4.868714826312662 1.1692675256872676
2.037638104464379 3.034521767504133 0.13546160238480098 3.3775523640044054 4.974717445048117
3.8644590996889914 0.4315852495089767 0.3589358229904055 1.0815247724064225 3.9857998613250483
4.157397475210269 1.2306745280972353 3.127321524228047 0.5803019737304849 4.90881404035229
3.3028254856202044 2.8993523452702346 2.254841648859553 0.4145912989881395 3.293003002014201
2.974011595061414 1.8595292984288025 4.352530778907065 3.787098710933387 0.5046673027524068
1.9333267304207824 3.4297648957003286 0.2810462765650168 4.776725463114568 0.7603088849215972
0.9877582350632791 2.514680106468652 4.778615188352219 1.0137223321210331 3.6449130185352194
4.090802943774095 2.12830234802132 1.1537077954481734 1.3710002834893908 4.697084516950051
4.938463769049938 2.800551005348717 3.2038336260153786 0.809894808370264 0.3379594147506043
2.960678484655013 0.04918284698474107 3.7000153400876252 0.008192229695703213 0.09083197969130152
4.518120457950174 1.8648367651430975 1.5198095562534497 3.5691773690659563 2.442950975414962
2.2270505304327814 3.5000921021259037 3.2306082597212162 2.1021718633584725 1.7929247344203452
2.7931548539396314 1.4733426689707108 3.8598575130479524 0.3251533653839489 3.112904787165041
0.5423468861611552 1.1751585854599482 1.8632246498939216 4.9552334713655775 3.2377465852756178
0.14587710062885562 3.5797633256145005 0.028590108159580185 1.8835056097180658 4.309997458206919
0.05402941882346801 0.7450913046453689 0.20160663318256722 2.12547683010403 1.5210915786095336
0.4142647765412827 4.3113124668530585 3.6173179493825107 1.355780665113298 4.614846310122766
3.806618229748153 4.264543917956411 1.0721694813526121 3.3482150252958682 1.5159700205555198
3.5551695492111763 2.845951289500788 3.1997111140668015 2.090344430113677 3.016290747752597
3.6890203682878346 2.432979025859585 1.1606088288597634 3.392643684692712 3.9728583182560815
1.050696863894665 1.8289738898477097 2.17602445032733 2.401166482170251 0.9589390950931936
4.4492067934479005 0.7879496800990604 3.4953221070196197 3.3258200743255055 3.8240427209788965
4.324480526225554 2.9978110316451145 2.3600757116920006 0.2578170749109132 3.8318381281339726
0.6211922616455079 2.273833908439973 2.4924473517158345 4.7090600633526325 0.6521810251522631
3.452583995705413 2.729443260567501 3.8141489572684866 2.726398364904931 4.813350943107323
2.3954888078801098 3.6371337795806458 1.1614787525429908 1.8458378324544173 0.5795342218640243
1.227815554554847 1.7143261572614399 1.8464336137754334 3.4592825323665553 0.6469313418990325
2.220114542165848 3.0050256153129595 2.9065232864178387 4.043049962452882 0.34795540576130435
4.90055277491233 3.342437131015692 1.508003159334026 4.227332429381471 0.320699557387808
2.4132480316174663 1.8437493831339202 2.3684948481086927 2.0603906796229787 1.6395164438963743
4.005960613790868 4.592784873933025 2.498022376310471 4.925682041748314 1.4709690020831512
2.9817950976442233 0.31628488572746305 1.3968647972581567 0.3692558573401167 1.8611822527114508
4.7186414451754235 3.4318023324503883 3.2072630876232786 3.4736311215147015 2.3966098649907526
2.1147547521757257 0.7702238863775951 2.2977368746653632 2.600044414927764 3.1215799659508296
2.015552950763917 3.7517588056280915 3.542438994797476 1.7860059517473243 3.1629932138354593
0.7811768610335534 2.6536642701677278 2.9921987548473594 3.9626855028109995 3.6602835670028004
2.974558163924867 0.856909548359186 4.843344264853317 4.533543114085076 3.8141122592025956
0.20905647124974946 2.2818017404454327 4.5266808827816405 1.140593137414108 3.840505988212426
0.5640051691618664 0.22823038883214353 4.947411813999791 1.0304852473580772 4.534608165857638
4.843813174614879 0.6411358726918787 4.18078307210874 0.49243462423484763 1.2123047706356656
3.894744044627699 0.3806073407144134 4.745251969908116 3.9169860778461274 2.1186105641002357
3.713064066280226 4.963998107529504 2.5936836234820038 0.41052267352183314 1.7259943381175946
1.9430301252919886 3.7991525027270407 4.973115594220902 2.037722819123701 3.4160795782756486
3.356773972607192 3.7244303732965904 4.911959403354255 2.26438015282826 0.38061928575131687
2.7471846892237934 4.024508633664317 2.9289903865050446 2.514349180216012 1.4815528894537726
1.2570124230824908 2.7672464983919975 1.7607351694250928 4.495670778270259 1.3152888521716837
0.19005733292606075 3.0014482013276633 3.0684501612254396 2.1091774469743823 3.5269683351924286
0.5720106453732388 4.276648984212745 1.5876758638251949 3.3375499189037923 3.647504134991176
3.0534172491296596 2.806397993228378 4.651981275643572 3.5210327331311557 4.026977309455668
1.1513263108269185 0.9241057067271768 2.385668995900227 2.907913733143234 0.3863646795706843
1.1490140565106994 3.478068431280416 3.6334798262590833 0.21412121182724508 3.9149219614058586
0.5648451000182964 4.287513960379462 1.8479364203627942 2.921499892202599 4.253808805092852
4.9417198304720875 2.005802503379205 0.4401906005841616 2.390219600893656 2.0062436045898746
2.621169668314574 3.670005475760804 4.181822721288989 1.179821484035612 1.7358348323761557
1.1585923065785035 0.8229366361900303 0.9336897447815207 3.6856542814931736 1.9162111060119846
4.291479673535079 0.05337556141751576 3.3150017804183536 2.979667395822645 2.2238408004964616
0.6660744223764758 4.570216121567097 3.935784602128688 2.414791692541968 2.8586221143574093
2.673734867609465 4.88702135294067 0.43769040686817473 2.848171376664987 3.140497798597348
0.5920314669539772 2.7142032355909143 1.615858426658629 0.9566491374005281 2.473929792318401
3.2382682889479995 0.6675985193167006 3.4957744063883416 1.0031970688533831 1.014322333958444
2.9432675696522237 0.48404403094709225 2.2239559024076083 4.799009406287748 1.0918731850800079
4.626376696847092 0.7923956040198427 3.8113454422045394 1.5282908683384648 4.430565417459565
1.515747258654217 0.9503478841936586 1.5864725419763615 2.2337612212433298 3.48844859193779
3.1590218062870963 3.3366600898855445 1.6351145107370735 4.088645151293372 1.829189531628972
2.4245064627513124 4.839316865728241 2.2339561257311775 3.352845521528378 1.7505894602666416
2.447860665307819 1.0840353119117108 0.5137716382446239 4.976939533922712 3.5331419559566255
0.2178251960978983 3.786124013998017 1.725604060124169 1.2249450429293036 0.05178555850009703
0.34615916715858064 0.6264294056325398 3.445716771849552 2.1773703457632725 1.8595456465478488
3.7464497968553356 2.9205089608040473 0.625764124796982 3.6876409271300647 0.0730825459344725
3.529614482356123 3.336513843529503 1.2319678566792565 0.17355927559311757 1.7138093772504486
1.487551160757154 0.4436995641961644 3.0519840710619723 3.662453304416336 1.9344955410983067
1.4946477689136466 1.12113046258502 3.858951202615502 0.392785214203053 0.810214114243239
3.530736860418762 3.1385144196843706 0.18062345660590673 3.9646120907761446 4.849768305885076
1.4658488041677793 1.6804142649926708 1.1111304474294585 2.5151852444893907 0.8650050501313522
2.985812890762049 3.79890239548721 3.302082429739021 2.5627360637060104 2.6209313725460808
0.14668883836583213 3.665072870184154 3.725579859658461 1.0043339864311567 1.6470682878924907
1.4348722658632151 3.887642460587327 2.70719128920262 3.3361017804559365 0.8391057709789845
3.5518995707018397 0.058552329759798405 0.8578738545235626 4.901874328302604 0.675712605026153
4.409323237793423 4.9392706837248985 3.4813475969114824 4.129611657075803 0.6338696597967347
0.6264859238885129 1.302061162298881 1.5774719103852108 3.34724584410052 2.2154915648699234
3.4634111743506253 4.661453437945744 0.6150585713443235 0.1294499353004258 2.069839069494603
1.5368443468160615 3.315805900059197 0.8392538911522512 0.13552418359914387 0.12056595840205464
4.174492165286346 2.701797308609681 4.518580768328627 4.4693836839750825 2.213724035075044
1.434237238134607 3.6966324812194613 1.5219580171593128 0.894555713027495 2.413913877178228
0.009600420822835631 1.316582757579729 4.9086500581479235 2.794361210965908 0.5804176773165437
3.8916747359926385 3.6214389667645324 1.4465235299710155 2.413882746696698 2.2173260286830527
2.192289853901533 3.4133998140946553 1.5407825814705678 1.11054851362751 0.6066735423779729
1.0287787520841847 3.2925448621511495 2.5730502636950856 3.1960241145067894 2.122834749640625
2.7949979857604683 3.9170183758485115 4.189737326585581 4.402291940948288 1.574091272760475
0.6895013598160366 4.765138550348065 4.424149359269734 0.6111673176518628 0.14626362085848776
4.215088821205837 0.35327681542136946 3.84505093546533 2.123226589333101 1.8334792450362385
4.957649428452305 3.9165262598987622 1.6284866652474288 4.311041250018196 3.6539332758912084
4.34191920983315 1.4789658291453596 2.967957507275826 4.652318336305466 3.083046222030901
0.6149055261364295 0.8558038177691452 4.145601079618651 2.3042239407284733 0.9605281042974417
1.6638346828217243 0.8738289818726513 4.039531664431796 1.986612586431686 3.8271854889158896
4.058538678210209 2.0870634826064127 4.889846123912134 4.673617120311769 2.7127593533665677
3.0487278746168753 3.9833745829640406 4.4640957058130954 2.7535397137686863 2.263208926848116
2.627264770372384 2.705365690079871 4.1231934728315665 4.328231890774111 1.8495741553230527
0.7941645815353188 1.322844636416574 4.072775746628099 0.4325041792485834 0.8028928148517006
0.01229823802083585 4.158993205574193 3.229609489444884 0.4149683874729676 0.2402530342751863
2.1867370189937545 3.620668784368754 0.9775318915584347 3.1281939107010928 3.1347109491094596
4.431797256372127 1.2352763533729454 2.1667673519716617 1.5734620519090892 3.2198380778547397
4.345199969793336 4.85845658363753 3.875920890573617 0.9266431476877429 1.1673746916637535
3.8562647906795555 2.4122857597519722 4.58651382560573 4.51195353639335 2.2122492814742722
2.796561672016801 4.025398604944047 0.9413051589889693 3.568158950638315 4.3454266583676295
4.2889501197217506 0.3608037275493653 3.998763419281177 3.446791324391389 0.48842784947275175
2.029137145534393 2.839330240832644 1.1905701183769135 1.385170542990124 1.5985489065268927
2.6949705421448797 1.3235703119361109 1.7317306292575751 4.0341077518940205 2.897006539264038
0.39415558703586207 3.1323281277563977 3.0990980316209655 2.5810719079465194 1.0741503594080748
2.514573579451933 2.0699430130416285 0.44375050445259134 2.9868057784273905 0.15928700383032734
2.8214799705845457 1.7060158400211156 2.7363478540370707 1.583174546846719 1.7581277907325248
3.6236587802786833 3.7815794361883115 3.7360368312570316 3.116953806541025 0.15265906489645653
4.759010974487287 3.7255462474990515 2.159824242857895 0.7047312017217672 4.214290787632841
4.928310836597823 3.3557754459299627 0.2957384440576871 0.18245454539863815 1.3408602853730212
2.014112368713806 3.022310956802894 0.41428258100147164 3.0725561692065266 2.722003597336908
0.10549181905204874 4.2475014074412085 2.8993112224973143 1.4161292018197347 0.7666553094120743
0.05797934778536851 4.545787960691779 1.7191206627589461 0.17773735930541323 3.2007071912333336
0.1606606119166104 2.0796014791031903 0.2696885657805781 4.7418895215147785 1.6074348469927662
3.7153389846004705 1.217904628342461 4.631201460781698 4.584333342497383 2.0095851458010916
0.16429901977790484 1.6775657763620777 4.748761110429221 0.6157271552437771 3.150991234654898
2.227393245187292 0.25479663180874357 4.197786670277829 1.7176595965716652 3.443763062220349
0.09692728331666067 4.731727747426068 2.8402250196918875 2.3982768630164495 0.23029252933860378
3.7611099598389246 4.136733751077586 2.136726764173524 0.2124548646743385 0.8382478036278657
1.7546649704792172 0.9777825765390497 2.944272045192265 0.21139545115606118 0.5396859883331834
4.774962357829063 0.015603287818496958 2.690221743280927 0.09618176930494882 0.09651692256680999
2.570630513704085 2.413742832506469 1.0572135986428044 2.022232547132199 0.2650130421085656
3.2768553757504475 1.656019853880823 0.16573409121318217 4.840671552436705 1.984394992902045
1.1222590299136737 4.021504850964507 2.6441599743223576 1.1610900440890144 1.6071292819733012
3.2621820984455474 4.016990401730664 1.4404610369369941 4.491619249284487 4.606933461295551
4.9203797440576675 1.1158662693833028 1.4960747490153992 2.2043181799341482 2.383673038971159
1.8952628261211801 4.965731234445275 2.686655556629379 1.7149456628532556 3.574184938968589
4.894985649310729 3.955476861513421 4.830489621478484 3.2431197067213198 4.580047982710533
3.7574185220366285 2.6636371616330745 0.04740843536978068 1.8890770650168593 3.235136250384572
4.523588365061027 3.6847084151036102 3.9076269473852827 4.849417167160078 4.3868132372980275
4.835445637145929 2.4476468542933745 3.0166046419486356 2.6580149452045454 0.28803001266684725
2.321885739292499 3.720882046256524 1.0123893235153676 4.922539649495575 3.9094614832116594
2.8563910626307636 1.5392118198345202 3.4917992106806865 1.778655876781401 3.4513668794417067
4.185298165459437 4.242237192406266 0.15775737353286357 0.9884709414040771 2.8533669801862063
1.3817451501204432 4.037435630757205 0.12401216940432225 2.458511603005719 1.6115960683574848
0.8513119066515934 1.1533736171539726 3.0830700133329625 4.4259842526483615 3.8613377438761294
1.0818451892595098 0.9494827860510591 0.07948768410989127 1.81727686905372 0.2706908385293816
2.855100542495822 4.123194476216724 4.811951810711185 1.4336694267695604 1.1541560110069442
2.606489143179215 1.5229611775871303 4.248447161169079 0.4945971297626045 3.3333824183225778
0.6981443498669493 3.1630331721654397 1.395177334371382 1.4959503617282832 3.1408845938821144
4.756828078550497 3.8636605486022457 4.215689910078023 0.9863726205791984 3.544760589467218
2.7093510439597206 3.2378454298313715 0.10888651857423104 2.6052544402364215 0.5015033326475599
4.665828071198427 1.525499276709648 0.26601110826222407 2.8074702660895574 0.48148864095455823
4.849516669061362 4.356889887494388 4.8041706322630615 4.306335226344615 4.341244010068357
3.2423444117897047 1.2853025129446767 4.00519989170789 4.75775297701687 1.5939696657077036
2.6056267930437613 1.2011622967189388 1.1357049070299525 3.115151091740315 0.5652613883390262
2.2637490808966234 3.2537314861752304 3.371995519353612 3.92616099401814 2.182076948363632
0.721493713243635 0.22139387846882574 3.17758663697001 2.1415368052815626 0.700250369101646
0.48987708573583755 1.015402033997883 0.8783675907744087 3.4695001763118642 0.06815192409122317
2.403767635079501 3.451919846547347 2.110589611944163 0.39065004292007266 3.113331658846843
3.072276657144641 3.9226554244440055 1.4108618961472552 0.1686564098266291 2.7046962222348077
1.0079719185802627 0.02905634234547816 2.5490645652743638 0.5904113909001985 2.0476505289632567
1.6825443840150744 3.2993020729255047 4.1804532420945675 0.9909508257225691 1.8231527583085572
4.622438567814049 3.1301410089088195 2.8431903347702034 3.2673984554185695 3.642024398919092
4.136175330001899 1.3494717074396267 2.3032916363240847 1.7959093214782107 3.5987651901121787
1.254586160376976 0.0910541815400151 0.10459135216588478 3.8379247940113337 3.495391456161353
2.1522260790459424 4.7386646078684445 0.9836526609007523 1.6919277679648799 4.677629518142855
4.041775032583459 2.2955902831299166 2.7248726027086785 0.271550805543333 4.117654722467316
3.0983411923549076 0.6683668299412232 0.32372829690647587 1.7049073038576261 0.5116860874363394
1.432887305228454 1.2311053612508083 3.3559421880244895 0.4767065405605536 0.7322340123010751
2.4657170657696144 4.560718435672834 2.7405448859651567 0.8458668770725469 3.251377880999473
4.761747503193451 4.704404176933312 2.2665331212679414 3.1842378295577483 1.9442938173071844
2.7005210751129543 1.8681159540193337 1.3943777997498636 4.6771292494182255 1.903920681422076
3.5312059552117967 0.24316714137130324 3.815054532253281 4.885856501349088 2.615593029182724
3.647494985934942 2.26181846881146 0.605325794010943 2.2271821032610886 2.188434825429666
4.6834410519177485 3.2064661972255926 1.678165771487779 4.152641284023569 1.1561529025299577
2.444635265610475 1.5611307382502493 1.4544072307388045 1.386042813423033 4.792377954298837
0.7074291681464401 3.5758053247198376 2.0887657936998316 2.8160413152316046 2.0913221736314473
0.7459186743474439 3.710215468630445 0.8550443846818373 4.524054989847161 4.002579348008756
3.7465828317290755 2.9033991628732507 0.20057129389071504 4.584819895663007 0.8690381200918945
1.4809093394331025 2.837081247215436 4.696626830469533 4.933916158515352 0.5786757918867041
1.587934216572322 0.8233656094600389 1.7999608828619 0.15127075698052883 2.3797026024108408
2.6967582749997603 0.529838516581998 0.734971145940439 3.8132726666805246 2.2486761626618232
1.465999389689856 3.607755329734398 2.4557315461219997 1.7325566381914599 4.736866196096629
1.8412607633217397 3.5793490763857587 1.6798894848052686 3.14940979085883 4.015509349280592
4.094083390526828 4.194504115476539 0.13220376512599497 2.7227857167790317 0.32503962902072414
3.5747746778619898 1.8727798861559952 3.5894947761809486 0.7885564305458298 0.9055837296997205
3.0958397781996716 2.192131609143526 0.18267798773175858 2.7364956691860587 2.37293898406667
0.8707957657266396 3.0198133312132978 3.445445981533315 2.5084296088809777 3.368393811131483
2.5492725818653144 2.2512146638252943 0.10096911934461772 1.110509763625479 2.7627972123124285
4.4207344432396 0.8459247149679872 1.7807537233383193 4.353891617615789 3.6958822862274046
2.055375191702151 0.1563915650160702 3.36970091027986 3.3070206154793365 3.5639844230509454
0.2963263480376016 0.5899284894252699 0.5996627534209309 1.359733564828172 4.396366283342038
0.4436592215264634 2.3457702010818045 0.4366752607120783 1.5282374327739834 4.624160634666675
3.475219847617576 3.2506733145576745 0.031581499514559686 4.217175217008842 2.239393784703627
0.9530818461367152 2.839586196074598 4.608867654859159 3.693033469538609 4.600898242527764
2.5591137986087427 0.230413421728774 4.970887330597289 0.7042162360659504 1.159785129546369
1.7195808208745522 1.4471587738416702 2.4231669591652443 4.846657000732591 3.603470880440077
0.6251161531016347 3.7735111720628325 3.9726857446523645 4.5218413874307375 2.2255123536023684
2.9632391759449157 2.6752085751305255 0.7015713139602564 3.6422192841304506 1.7571305987396213
2.125876363730383 2.28622519391448 2.896265143944219 1.011430126195207 0.36133785550284403
2.332973565234541 0.5466997988071193 3.589129655728777 1.3297745866253967 3.9948077780426248
3.4201654185402264 0.0782249494933529 2.7879560919718798 2.2668666322068214 4.110367697067016
3.7539338832851206 3.8952700593301453 2.933987817990515 3.1330531298207323 2.584825889977504
3.179898172478406 0.20596366415108147 4.0510265119443725 2.7442665207713195 0.41051271900583386
1.567133938495705 4.28475746122671 4.61291972710803 0.47532873102632434 3.2139392755322493
0.867774908607013 1.0634825949847286 1.3390070846316688 4.7048626123362265 2.0719057779453487
1.3463156973862174 1.5346276820105436 3.4522563105317 1.399553286805093 4.565576328349536
0.7177359221495233 3.8876065137947844 4.440843051644679 1.585402695589092 4.3470273752867685
3.074963061175861 1.2894974003810933 4.0189933293427265 4.177588526349045 4.790002956479867
1.8377367492321905 4.652266937881278 1.286985896767534 2.5240379814077754 4.446746863940221
2.995275975785594 1.0714181366972886 2.320290930495386 3.9016255626480643 4.0386268702987485
2.5750245505881475 0.5715626064130092 1.8804587715374494 1.3186119891972918 2.3732416538785914
2.4773126034300836 3.4044389703077007 4.770879977068928 1.7934852837086863 3.9777498171548595
3.3439037141571877 2.414766879996335 4.147236279647716 2.8972303505456907 1.6807600338534372
0.1784683148388233 3.6756016964935343 3.0268637066811617 2.1240659225037746 1.5431810012227993
3.2136386757154813 4.293510704714501 1.2788062956501216 1.0194149287083958 0.7875749396867843
4.6043541071245455 0.33242948670666017 1.9424895879395794 2.2307584345712597 1.3901783423191794
3.8617152082579094 4.624731678715286 1.922456525702988 0.9954136657458323 3.8951879372235547
2.333918610921064 3.7434800274194577 4.740786698259743 2.486643112939686 4.176187522009712
3.696883160034375 4.853882280619258 2.430766018767902 2.5323475167287106 2.0992408654360917
1.3131523192102041 3.9642356232361116 2.433058466630393 4.5582386015682985 2.45720483662534
0.05490965888846566 4.528773691489592 2.1012539304991855 2.9987267451290545 0.9587952590436438
3.2416172633892995 1.5512055453656481 0.19595790983893469 1.893260090417443 4.891045138407319
3.414703768854041 4.4756635178449455 0.28741073566103725 4.08443303060427 2.7884342601299172
0.4851573505817136 0.35702943464328674 1.2858149391465727 0.47579000021172657 0.9753274709732124
3.4684038347031976 4.725583554965248 3.1286900313727566 3.504250772316451 0.38652953936110734
3.2884276741298732 2.743121352499989 0.36900280561805554 3.895037553316646 2.5489623316479335
4.724940281179835 0.08869561199818354 2.3353911201338615 4.688436678086415 4.192051970067983
3.540694697456535 0.9725390615647805 1.218506046182748 1.846430780201806 3.4573720791404177
3.388901488164733 0.537846285139158 0.6246274510761796 3.6909141287082954 0.28326677104812237
1.9124541287902863 2.3889124539141875 4.890529955263673 0.22374646989884894 0.3990257009874715
1.9369345941241707 1.9405337576991228 1.4086554569690186 3.8220192774398143 0.1967280536047883
0.39131616606635056 2.8494586863225995 3.37494352899336 0.8802097671093778 4.502979906950172
2.9045795076350025 2.0124833719883783 4.709606151835647 3.9806405104437568 0.6635941245663324
4.026422182483974 4.973936370714794 1.6594840896744274 3.945362945830015 2.832032202268779
4.6837525138985425 4.546414026809606 0.3003719560320989 1.0951825013810996 3.0884614989111077
1.49155012278746 4.531933721899416 3.7995022591766947 1.4856882772061213 2.8906768816691146
4.9760054248859475 4.5784379910566955 1.5470959971778604 3.842147044703406 0.9470479591962089
3.9951089268468105 0.1272031947757235 2.676036423282599 4.770464232776256 2.360879164201308
1.2840513901916228 4.813584182376896 0.41273052737584526 3.084967708116232 4.769855628360975
2.4715738311449114 4.310496861408089 3.4524920034696747 4.5627835119397036 2.622115474068223
2.7717513647283294 2.178649319106748 3.8258657943212437 0.7949794264744309 0.6677642944488488
3.002650297641967 4.7400954960905555 4.02414338900652 1.3793686591279042 3.210880196306464
0.9330565103236588 3.054269542405616 1.774224132903205 0.7372084708696536 1.920943701880522
3.2655743958745074 2.007917941204842 4.180244881033083 0.7294588286134451 0.7860130669895871
0.7614970291829937 2.4786117914588686 3.0422792307096587 4.5669825089088345 4.028197865206106
1.2066856007122762 3.1975519990917682 1.2479219039117484 0.05278569795429233 4.351009647434452
2.087291260295936 1.4060630623239305 3.292389495739147 3.0150868358362453 0.39030711383873984
3.7146498945322994 2.0691101469158846 4.941696420237389 2.8223301691314346 4.60996826234936
2.8775293405687496 2.864496285312379 2.8351560713230857 3.470509528009807 0.9297706967220409
2.326619220227496 3.254046647738188 3.8217899514671916 2.529604121911717 4.186173732913893
3.4770737107133542 4.367665193207193 2.9952381683682123 2.471111118049431 1.274323559678685
0.6829690005489236 4.595365624140601 1.5099293319113005 0.07855719520645399 4.123172714401736
0.9990671310675325 3.321916649930054 2.6122215299894354 0.8701327615348109 4.223744491992779
0.32289628886779886 3.742577964210867 3.747446962780666 2.668346842166407 4.584635914717593
2.4801732832902204 0.7687494945262241 0.8036375703501353 0.30629880410061316 1.2567916489269182
4.1075757768505285 4.386555795768422 1.6482095891933235 4.278221634937424 2.937899946702454
4.919614253367665 3.0558063497813452 2.025105453074507 2.9407265728270082 3.873020204489971
0.19190443043800243 3.5375912633110813 1.0928507506408862 1.01523605064959 4.293432147083608
4.008019998438121 2.000662561687006 3.8966568315520176 2.1020282089322295 4.781369699242152
0.1843853237645271 1.87115977310834 4.517674857124602 3.0024117286748186 1.1681358260052077
1.6046413270383775 0.6895667850725684 1.4931846395167714 4.550889593339562 3.119037594896867
0.7135093199265785 4.992186155481962 3.601170333777631 3.563488931544099 2.3646921542871437
1.9493743916501134 0.986207370495939 2.748392489315866 4.277633192203239 2.2598920052792626
1.2066489752910536 0.9352700652508339 3.831259263361544 3.335939768816829 1.1194449060189222
2.1572045603072 4.888196593189863 2.341992012884098 0.8942104380564625 2.825158292509069
2.0190002055510856 1.7216911245264666 3.8269650398062853 0.655918921456406 4.576208978876631
2.6431722769317685 3.3869227057558966 4.383638543245155 1.7199037486271462 2.895492200092726
2.5377188382054037 0.7985021199005993 1.904927301800916 0.9198289932459791 3.327126635894885
2.024882819320333 0.7947840957595786 0.07829960997851604 3.853617647086041 4.29688720618765
3.4964434454043487 2.0179485410071534 3.543299606032148 0.6986440697606222 0.40506163139263585
0.2978409585597558 1.3013118050461636 4.3830391575413925 0.8574798153012086 0.8193546540949448
0.2016025969905888 0.88198280188376 4.873731353570578 4.367279960329727 2.723730977762646
3.520089482813721 3.0956803785104006 0.9100820133801041 0.47438234434549365 1.602388072695775
2.739967046324589 4.221213929812823 3.6781079445429183 3.2609534727785903 1.8653890841379372
2.8236125257670732 3.7194859980944943 0.09885586508195265 3.194440944394321 2.704904725877815
1.7875907147371 4.0892361036643035 0.7122223844821451 4.208101761581057 4.084310117258271
3.8866116408539853 3.577464580596467 0.38333630278596653 4.949958125214851 2.127298439912151
4.149776677959402 2.5156253943245552 0.2141290996401396 2.2410491695597337 2.6127049922386014
3.396422900999379 3.1524439049041137 2.0021758295878476 0.6214059338260847 2.939918932414653
1.9778813544693659 3.6821578117023583 0.7785418080125933 4.369081128321265 3.218236784668253
4.657509924038422 2.2997260508555026 3.8637177542064043 2.4518822025907347 3.595338893050947
3.290556217471598 4.498649570759539 0.39252108009094955 1.2808793399635543 3.1758391965405544
3.831795495042334 4.278744237631365 3.8773281331080245 1.2743205842324112 2.0482235204410904
0.937906372525002 1.7097222617167245 3.602170884904999 4.611118977678357 1.030321020638743
1.156425787654682 0.32079529652483896 2.626426772686772 2.4977390931006487 0.7286101327833572
3.7672309616350184 3.6830521759250967 3.915432517066547 2.370127626017775 3.102933916115403
1.8848305994165697 0.23030575225643612 2.674267995600009 0.31124026456933407 4.452378320093391
4.623516744981185 0.25861634277641155 2.0937979907646005 0.910504535900874 2.302239286405027
1.8418415561860524 1.6135940464007792 3.7909851124764815 3.6123942285187267 4.4094019248519984
2.8487330980090064 2.7654610930555212 1.3026241982652609 0.6547875960982091 3.016778385407845
4.284208789983981 0.19369384816369795 0.569507507217431 4.557942601460413 4.590317700754028
1.406058732734996 4.5201908616921225 3.1308410015318335 3.0304503565591343 0.8631878333194237
2.44789687671929 4.226774720232856 2.931034187599172 0.01788105651996219 0.8138738565057113
4.264285880459394 4.723502052633349 1.8197593823048874 0.24283339709186058 0.6114730296610782
2.8888026742436006 0.8566887158760078 0.44425419806567723 2.0297256040175116 1.4873748829022027
1.0629444280879223 3.9658550063029576 1.0398942272936278 4.065758984047102 3.548929539433987
3.668146174408186 3.907782908331553 3.249799504551443 2.114686536284518 2.460466773603141
0.5531292848193625 3.7075622829158696 4.339986188350961 0.542345216727993 0.8654270931867103
0.5727350621997612 0.1615333616300646 4.641612427581036 4.967408957265585 0.7165599386750221
3.003129407255027 2.1299318421132756 3.2810742081610007 0.42459197607493004 0.9062737287160172
0.8632974610419902 4.06152691912577 3.676784348237639 3.6307595863374518 0.05511184704391048
3.688927811321761 3.244274578235264 3.9919623562443145 4.146604085876301 0.04986073812680458
2.924945266204099 3.469917897734813 3.8998852815628426 1.5971457515025729 3.952192850484738
3.212347850667548 2.7849666904735204 3.9902247962762365 2.5046808534560787 2.055370933468473
0.9020876357173874 3.9348904266989293 2.27736980841303 3.3384201171539685 0.05730040369150424
1.7654497996592617 3.5000021962737975 3.4413654952800963 2.3811405646829016 4.870777443893029
4.284793381508903 1.2247547933566627 0.4332491324683879 2.2269053036772934 1.2522300092306087
3.0442807636201046 3.167557590001962 1.9747525545148754 4.8764709311241266 3.105168445801886
3.5386178943722904 2.1236854982692366 2.3421513194773285 1.0685601630517088 1.2560633449094238
0.6111672922679395 3.8388216864441107 4.106932094406529 2.020221766947917 0.7893776979770722
3.441358275781532 2.205962789020643 2.1516595519919512 3.4350840762600363 0.9129805356344967
2.75718778036968 1.8884360591320997 1.3762868208568428 1.9919742644861187 1.5112715547802802
0.2580587653317895 1.61866071022998 0.5117286942475863 2.133788649157733 3.1048176000705547
1.1700838919433236 3.581885290533667 3.3455541229467656 1.4319395766476684 1.5953101817478876
0.8781273998656441 0.011010339099055688 1.960631363230278 4.224484087198771 1.7086679243615488
2.6857068629662164 4.903220110975331 1.1937929939175174 3.9159019740639343 0.15958904944528507
0.8102498807516134 2.2639089581873235 1.4323811955556254 4.173823244163519 2.97947056974039
2.8653092961950417 1.7962981195304262 3.4718594424968146 2.6504462049736444 4.036003304966543
1.5041162292693033 2.86413318736606 2.772979538148497 3.2376122817254487 4.291389065911993
3.2303575344067026 3.707115535478405 2.005519825912796 3.3875752823131284 1.5806961093263194
2.687400474545219 4.2692755220684795 1.3159787822348568 0.7078794415673467 3.174387708113786
2.9230412488629542 1.2437590717206555 2.4088276585364627 2.1516293265913244 1.8729355857148788
1.5169406202747193 1.2772912499989142 0.08145670479676403 3.7210257427568894 0.003654120535899752
3.1632482641647157 4.289781748913706 3.179401708831502 4.5785995002874476 3.562703044347769
4.230907548351054 2.64713779589891 1.2839103756548638 4.6892422011045305 4.605500640853769
3.9249828826140627 1.92955339230227 4.213010033062742 2.149280785727274 0.8711735974955948
3.318480146293491 4.8978003851622045 4.916102463273877 0.21346311493683878 0.6613458735455602
1.928221810259791 3.1666097573495673 4.464404803352347 4.179940573825009 0.41311972199704006
1.4459367558636416 3.22607218026149 3.0736668202226007 1.7799168499390823 0.10865218307919922
4.205305240210727 2.6514099339880874 0.12211868623097033 4.288315946449569 3.9274726014337356
4.04857525236994 0.7105403413889289 1.128705509424683 4.360446326005604 2.402676004127608
1.5160624516152854 4.32398231735015 4.2782373093517165 2.216019887413467 1.8114549420058024
0.911647275469068 2.720943922367718 0.6662469125364884 4.3844976895867225 1.41834889790029
2.857568906159116 0.49565469508744187 1.558133640534463 1.6184473470771215 2.1495932517721448
3.195722817314576 4.719066887499245 2.4872553430074875 3.268681530246859 1.6719071693398646
4.023048289573959 4.599677067922641 2.829225654872029 0.9182981193366807 4.868997252568167
0.04647380643312715 1.970924075916175 2.383171475996627 4.746984973425689 3.0407024436249563
4.123461490508625 0.19355248380399148 4.750494813136043 3.545971653606924 4.703426786824893
4.881359664402029 3.3905258954887527 1.5087234230401232 3.6900251619315574 4.2082354954253685
1.1112649298881911 4.886063697282992 2.2883400913488536 4.192304534991531 3.184504254893172
0.18734758375858251 2.3726993499029603 3.7124141383396285 1.619273381531412 0.0017786848665279908
4.847393575882116 4.7752814601623275 0.8474163168925108 2.5357818853647744 0.7041727711813167
4.932476180716552 4.546857733206386 3.2788484935683613 3.3389815284429574 1.5240928910712475
0.01984819069254018 1.0612532612861425 4.438481412824724 1.5564500987720875 0.9395727206620486
3.0587754450285107 2.4594477351095345 2.1557878211930603 1.548680694887954 3.004091146281613
3.121804896023024 4.194880483854123 3.385294767722055 2.2974169388112835 4.337204519759258
2.50053781159398 3.968825960219586 4.548272862455036 2.9644246154315628 1.7570588004501326
3.835681004291174 1.8920408344492317 1.3051713940820597 1.0511822046263108 2.561606222266497
3.63661372197636 3.8014707666523124 4.597787120404895 3.936826124393117 0.17571847576336563
3.8530248167167773 4.194861127248152 1.0654534966602502 0.8814713237785238 4.537813402248284
0.3324406260279239 1.728642957140144 3.3684239258602084 1.2546791640264388 2.750050831431516
4.319636155420966 1.9222290237051065 3.3249105898950315 1.7229963911741897 2.1967608200491178
2.11401815696484 0.47865943472434447 4.458669099194562 0.3663720244821511 2.7821988434572873
1.890141636288583 4.819736744398757 1.4836969554829238 1.510743980116764 4.641056457542476
4.349843520313296 2.0802691578993517 1.1156478837427102 3.2240976014522653 0.9131108131054022
4.586240090474925 2.7105069862539626 2.1465821856232363 1.5269753629355827 3.5522398222585974
4.157351781153936 4.194130237603552 4.3450409318234575 4.450594915203934 2.149838749792817
3.431406569431514 4.2222716394559665 3.478301162056389 1.6179888317594893 2.9345248966059096
2.0850660762649316 3.9207411019936416 0.7145518959042824 0.5528696010341233 2.998691427730824
2.674829322800874 3.3273038591391795 1.9440012908034332 2.168675455297391 2.3463506693204823
0.1583989469470315 2.1161695264409808 1.9869352522290336 4.244468778196974 2.3628015639497297
1.0830940497256902 0.7372807976341705 3.7710945736244343 2.3368651598679286 1.6064516327707468
0.8619536307095987 1.0487116490724224 2.32299773262202 0.3979214346013116 2.7763243267675324
0.7509933277466391 0.4499173666487388 4.814989700158913 0.275903549482433 3.4064666803528842
3.065884875554798 0.02893588979705264 2.7234750897475335 1.266970849647136 2.2396058955425593
1.7581075305627052 2.0750793427908967 2.8772784360185346 0.523693548662198 4.616319918689128
0.3969092924596074 2.0066608877765724 3.1876056139883695 4.492014460243455 1.352657316807882
0.6803828578423909 0.05926965714488752 3.996208134423111 3.005137232220698 4.955526581831042
2.3626822729732586 4.928598897009155 4.9780228750317965 0.3578508800222402 2.215763521363787
2.3630684842797027 1.9059152234903687 3.9843165306878428 1.401683894859362 0.8069830254204768
1.1293700484873848 0.06923057650286335 4.8192513264468415 4.622311849858633 4.621886735095138
3.3733845583268973 2.6804672718777303 2.7220775716394696 2.6243021962634145 1.1717392029056728
3.268238470023985 3.148039187331354 4.703129903004377 3.7057779521791945 3.2913761203926195
3.6810188727342705 4.845471572441773 1.5019750522214625 1.540297545013315 1.3388711233195267
0.567830125879471 0.9292484385751965 1.084700340169213 3.857138406277221 0.5835875486223263
2.782015083406656 1.8904817038450634 4.024715597376888 2.8505485325833497 4.391548173043
3.770054888365802 4.23036844341066 0.9092793325181581 2.551842728616942 3.410575993820491
1.1217084677250595 3.528498160284819 3.571535139895559 4.616663948008264 4.635540498487848
4.797283837085341 4.844104862865824 4.282093760718426 0.16502149103992503 3.406164687148948
2.8866517543431813 1.3683239558680977 2.497329318160642 1.09588990504764 3.6149554725596373
4.722252896133357 3.841996241583829 3.5660781982727836 0.32586821124226506 4.64462839479347
0.8821371214764762 3.587710747004416 2.7489279587886157 1.475254292274547 2.3569464880709106
1.346650314788741 2.1835451120826637 1.173933367307602 4.558707606888934 0.27154104962684666
2.307406161606298 2.0912352326466355 3.8393675201377055 2.518286886899039 4.016606753208602
2.0947969681162846 4.629596460494411 0.005461354615486913 2.4696029760845373 1.5964891328638464
3.1949388442834747 2.504188491986741 1.4709186837612964 1.1872784063439268 4.437848230345722
0.7379029803600162 1.7218499798214122 4.795428357757807 1.6917105052670682 2.467493422740137
2.4392757238719187 3.9150678481463426 1.0815616481646717 0.08233178688682063 3.452705073167519
2.061087124298018 3.639772136057307 2.797627192868775 1.6096057100191041 3.705943984344102
4.330241985195597 2.1055813875036344 1.4798524769920696 3.789860174906167 2.0449077384826557
4.98514692926239 1.9360068172138885 3.4945538591282377 2.41384755669916 2.657793664948281
0.8804563274511584 4.304555118739312 4.241994226247382 3.5180450799953262 0.4198306779944999
4.452740597229592 4.220138753995519 3.872103036852177 4.12110772077875 4.881917450383421
4.746993765102721 0.4979243536125849 2.984768376560422 4.457527395095499 2.1859825886309308
4.886208735361327 3.3181849814348796 3.42431444399719 2.9152212135312032 3.8275784731912794
3.0619979214953257 3.669117946239932 3.5465330592381115 1.4204639046096124 2.0352208039433157
0.5111530828467792 1.3727840551920356 4.718238289374605 0.12046648066573351 0.3219376378485306
2.9941461970143357 4.039410124909719 3.0040679161935917 1.6619861682993848 2.1848551343471225
3.2846849114164827 3.5072283752544737 3.8107010001675947 3.416595346025055 3.5743533842519377
1.5978613592197828 3.526769281473065 2.0455046173745712 1.8495791495070435 0.02374531409673919
4.2822584674210935 2.9776129654887216 3.499736592937868 4.8166897875051475 3.9695013266727415
4.719820590169529 4.196852511067743 4.4286491744533905 1.8166586285187387 2.1953083383745287
4.813100504505933 2.6244200283765755 1.1818467353271367 2.2966349374136437 4.437392145753858
0.8396019153113948 4.286170805184871 0.03540369100451968 0.062330901295094 0.22891204248193464
0.7543517245976644 4.569772525294442 4.864743426868651 0.649896985086208 4.692923695683372
0.367197987769024 2.262924952863654 1.252803920296583 2.61189577311867 1.4243045200809046
2.130567286613868 0.6299853133471833 4.334025748432098 3.6718701247221364 1.630349217250409
3.528808685166522 4.355017178803519 1.2278541362099675 3.244619285227141 4.906897235849497
4.78971939073038 2.9748207178901263 3.4897413181032766 3.1691085000043913 2.7229613732935256
3.688667924037954 4.446848830201274 0.11150427959349785 4.993846168025245 3.392048615451851
2.3741179122716276 4.47040415017286 1.0603264710146165 3.872923968537887 2.959534978814364
3.5967960662840746 0.5409174669220468 2.636427714012479 2.5122555294929483 3.2679251256899455
0.578773240433591 4.706528275249124 4.780915453483358 2.9223202380956455 4.792496683929258
3.7937829078032026 0.9690111024235071 4.433530712295466 1.4756131783668958 0.39667530468202983
2.004914692318624 0.8031258981063677 4.282318822849776 1.984526842189413 1.5129352648432453
0.33732576588447916 1.4630033948885153 1.4220007384298756 4.094257987083381 2.191941088643085
3.1740495233484785 3.1045232009826202 1.3755619089589692 3.3369575872466712 0.302795870033864
3.181815682619108 1.2236696864055658 4.451345784311613 4.9238095719603 2.1113167949737504
0.7333892332558589 3.126737994909579 0.5522437626586912 1.3354942962506655 4.961648932506299
0.9032286546262008 1.4215858218184447 3.4079769168195844 1.8842306642748445 3.8152629936332527
0.018413583250802 0.2109271197889745 0.9127066671377476 3.146041054936516 4.0391608652135655
1.3335436795208488 1.2506710793092086 3.90539347839491 0.1260540282241568 0.5751372552107581
0.08312086427660625 4.072535786319129 0.9116968942802256 2.248336500269745 1.476205174680148
3.739041112511332 1.9303199284160022 4.757063145006733 3.3638628220559474 1.985407885529689
1.82738492272204 4.140501622712243 3.9202820974055683 1.881385540471578 2.812846257117119
3.877893777740597 0.43180971557582215 0.3800357696201645 2.7192449871931714 0.014183496737570911
0.4682047161646763 4.687370866973359 3.4192035079277345 2.3686730475365536 2.680225457891925
2.4579156621664544 3.4727463269329113 1.084006243556156 2.4485371597771266 2.520209102673575
2.746754935097546 2.984673855592854 4.237562369920454 0.4315681538110616 0.18058515151046506
2.9791741101734868 0.5178861326595885 2.455063450676404 4.777201630972672 3.3263318203323147
4.473487163341223 1.527621194139307 0.8575471389050754 2.3867318172620955 2.949436264815821
1.1129409397415457 1.5137850608698111 2.5690304180465597 1.3636231714953233 3.2945518258164874
4.420995094704737 1.5320710461977893 0.07481643943110683 1.559042292521493 2.8727819854414545
1.9874156807487204 4.78210121762951 2.503071924237172 1.2008925023878452 1.684623050572105
2.948990609523902 1.5568600864959388 2.1880201966575545 4.497643264175034 3.1217965685124263
0.9425647451313174 0.5770066541647012 4.729141654767664 4.965390555378561 1.2020524646730946
1.820414730266371 0.24735409820976495 2.4189152777495018 2.4485542678770242 4.073552572307845
1.86480881220259 0.19436037621469393 0.21462093179880182 3.9166731467471645 2.545244388410292
3.1244379574223706 3.290843969643788 3.7814891821429963 0.5234445077625643 4.712188016237438
0.27035044312542333 1.9802540015017551 3.832962021324577 1.7054540417502935 3.5236552528515874
1.96432179529678 0.3630664783927945 1.3327228781066947 3.225923507406965 2.5268216895383526
3.6680225595494154 1.603056746263325 2.4671397735244334 4.255909453954673 0.1205468364858786
2.559098412460597 0.3645648610134683 1.8544494674149015 3.7239234340028733 2.5569549255819983
2.5704259431499414 0.9860754788765724 1.602479365151133 1.7321320776139282 1.7533017104301
2.980794819828347 0.7508993522031965 2.02878486537158 1.3728050806774483 3.3749515098975618
4.907439670203147 2.1694217697154397 1.215547194119152 2.556428037872312 0.13281940831640138
2.7507125144845435 4.041168008775491 2.07206760035037 2.6267051801908927 1.9525951469521352
1.992318052289534 3.442500873576821 2.100936529160553 1.7905666834738194 2.4100688876219207
2.7780343623180896 3.7075810662338062 4.213861580781858 0.905601722880176 2.854562027673597
2.4602029001240897 1.7731815158884063 2.0198440088890743 2.3098390276682728 0.567547992990593
2.105661083585945 1.4261907129520974 4.527387196423335 2.824505361590621 3.968656210132957
2.465771186383523 2.6378596897608126 0.7801699934053657 2.5519129222183627 0.512628463906219
4.377690384762548 3.1443149141918303 1.096375431579284 2.095883191849225 4.038850288109728
1.7563015066450611 3.6426901606631255 3.224816727185451 3.3438719677172175 3.7499403909850186
0.938406507819064 4.80513207532336 0.2253444490302725 0.40614661869583846 2.3979407188784823
4.122786125184456 2.5688111147937254 3.368046005606205 3.31283591331693 3.011113186784641
2.0290331568204656 4.713411759782534 3.866445059565209 2.437682628711647 2.6340653853721276
2.1727556408938304 2.6462918829435895 4.043095138829721 3.467819492096406 3.7977671865066434
0.718869290749361 0.15136289147356152 1.0879132353128251 2.0310738929433776 3.0458109641027447
3.404547670149714 0.2911407219450701 0.37164132990113563 4.551046866547138 2.2497214329704365
1.6474521537110625 1.2097047342677425 4.632783243410517 4.064243929533084 1.7378300685651356
0.20964815445777385 4.716763743778779 3.408473072230727 1.178998014270674 2.927077426732867
2.4921995575972202 1.0654276606853863 3.5082724557199443 2.8839767999925323 2.0691147913715655
0.6341408270413063 3.260732287433512 4.869347747546576 4.829761796996398 0.3409843936205992
4.665518516879047 1.767744198337227 4.94865011985439 3.2602800976129958 2.979596219872896
4.989158423265191 1.63523724086498 1.8239241139017786 1.7421721287308334 2.879611042133259
3.722238282311584 1.8359786237408353 4.520737526911978 3.612324775767535 2.5119165677057786
0.6014322728470661 0.04822310618465553 2.1651599385288467 3.3147174623589892 2.372846836669835
3.0014309773373253 1.2677999470803685 1.838612890017 3.988146238164221 1.6616921130440216
1.0378495812279116 2.1131640261524276 3.809403606438297 4.4063494006898685 4.69622155422887
4.223464615622554 4.547199348618734 2.370723262868419 2.353922723467835 3.1909544793311584
4.019748489355455 1.4439638912470136 2.195978506284707 3.062417777378332 2.7010897389951936
2.435313258041713 3.4285443332271432 2.725661466864831 4.963256229530572 2.7285949119817254
0.6422632162966219 3.1044792710120177 2.876391736819869 0.48188910232170035 1.4322137199089946
1.8864388358742612 2.677521386601422 2.474183909802059 4.300682299132603 4.721958133965149
4.993011466055379 3.7724791478693525 3.137010623325952 3.891675180880685 1.8343467202764074
0.9509262819732706 0.5813170690557162 4.669012131472706 4.91651797527317 3.099494131499661
3.938036833640883 1.7933282739889527 3.541794181134812 0.7460566922467954 0.8244992446536303
3.381039820570639 4.498388537796147 1.5083567300660006 4.515772907873111 1.563540959757569
4.7311357743072735 4.846564454759877 2.7987670936010667 3.2992590086180824 3.7456301352414414
4.773823873335529 3.996499589124118 2.495741942078127 1.7656667459548552 4.745487277403525
0.9144729326550638 3.4755500695959003 0.39357629647948145 0.2723819953270906 2.9513844584044797
4.826058816148583 2.833912538867609 4.035263739749703 0.11137678372229343 1.2277308393571995
3.443713040440477 1.2682281054233124 4.278907018270959 3.8636372974842654 3.23208196899226
2.14680621452298 3.1723723804936412 1.2421022237582524 3.8842837572879363 0.04747540572344999
0.33145515555996374 1.044178262864558 2.023630986153433 1.652547634963023 4.3715723387820855
0.7840909493770248 1.7415368122045338 2.644957983759067 1.8788838258621148 0.5215795691652431
1.226709890387112 4.085103785714868 3.6043845319097727 0.3553597238309103 0.581370004644654
4.07138402406274 3.905511838806777 4.372720942467353 0.07276423342611693 1.2922091269217635
3.6948469512358546 3.320867621124651 4.285047089899425 3.5720389843932225 1.9670001629650369
2.547791369360493 4.823844703036849 2.7297006464813034 0.16697076046401138 2.2278797609576517
2.1794282831685714 2.0174712728557664 0.4227038434920971 3.00228714060664 1.7044975917567207
3.487732791235039 2.6125756227572667 4.836604486585415 0.8204707102018338 1.4068391686005455
1.5313683976158594 2.770636674046009 4.717152374337687 4.077488714721834 2.738693176598841
4.031875269146991 2.610631183698104 2.786881715830729 1.5070521304070994 2.611472440076335
1.0384183502818156 0.2514938314933912 4.661003522305096 2.544309518350372 4.932775882049199
3.85279598506453 2.801169393717284 1.9682130299876355 3.5109036374243683 1.870391636027437
0.9377269066053973 2.145658259350874 1.165079054337158 2.7525851786777302 1.2691835253739625
4.324878883508446 0.7572834806470258 3.6242611070763453 0.13152847381016963 4.880934953771204
4.265683921286058 3.949794592975329 3.71220741432568 0.47350165277089795 2.277380628064333
0.24012668189174524 0.8232948299324033 4.831355531597526 1.7901809874148604 4.076357594266296
1.6707399829865854 2.7016347504323353 0.20413548178588314 3.979261631985818 2.932599567030848
4.0309688183798045 0.8378240533546877 0.0837509024490607 0.998469304458654 1.7719626317912378
3.4762046431296225 4.781571753962429 1.4083548836902486 1.904398042512447 1.202288790844387
0.767783357907359 2.5556738121177536 0.010726053889879572 0.08316854627581638 4.8199009572646565
3.259237523869174 1.1013563099313912 0.813192789889306 2.8828069445102833 4.058312033338916
2.765485638034331 3.0283012324271272 3.5381979913395667 4.854031483503595 0.873233608750627
3.821863591404176 1.0586110411617378 2.8425203988037238 3.363847930685056 0.476431573220118
1.7699353408251917 0.24327383972791272 3.8518988082966246 3.3745731392077154 2.015006842478029
3.5798429843736495 3.352376888047968 0.671551584701211 0.9389620236021856 4.794015495086061
0.19476046964128468 2.6500172015803987 3.8019725576382486 0.07402890995475087 1.84015446096231
0.6555615766420081 1.3801604930953175 0.8827705628189753 1.6794891457798322 0.8111767700123651
1.4429554337971977 3.541412249268382 3.7792917768775136 4.141078935157768 1.3793640858698537
3.0988403964880713 3.6648898434772375 2.7607325759886963 2.5174741206908897 0.7895302675726196
4.8897054402188775 1.2123471866608564 4.98130167750076 4.538769264932141 3.331821675244491
1.0985931069845774 1.1063526598233253 1.7741702852433443 3.799819229700689 2.8863673682391484
1.6371053644367006 4.972223256889614 2.6494549153555305 1.25812783091019 3.946879143488016
3.716919393787041 3.7043999407460273 2.2745556997524896 1.7983305968185443 3.916115517899092
2.466327050696566 1.0274373904824357 3.7680095741878086 2.19847818169816 1.22767896029907
4.773545037699922 1.1331062200630326 2.881328634131698 4.626893478567318 1.887803020772223
1.0745544779234006 4.039891456710236 1.9612744813291083 1.0401560539465131 1.2502404642763865
4.093586994059257 1.5109547699436598 0.092170971198548 2.656232173842454 1.714979999464673
0.137293702202122 4.9234428310838885 4.869333245274828 4.526085791960318 2.5859352290370694
2.212452217983247 4.888731940994747 1.7019486600506957 4.706593504955549 1.9314495910392164
1.4217607484150951 1.839585161481645 4.740778893801146 4.6748918191760644 1.9389495462052682
3.175994454641755 1.5379255871012383 1.0380777333995805 0.35394569595328274 1.8315113551563318
3.2776124791159185 2.934902303137937 2.6042405249021314 0.9996726781199783 4.550331420602025
1.0065876472603237 1.910121920551617 3.5546280719755745 3.1582889836801136 1.4227012858897414
0.6234876986630744 0.5661150258254127 1.9211608765590804 0.03870430666858993 0.9926498879183898
3.245353852925475 2.5848627191867637 1.1586672452070705 0.6228515314497479 0.9153223610142863
3.462265359240549 0.0013448218377926091 2.8814325369152987 1.7730462233217792 3.2899261019122106
2.4058656844421216 2.574100681336027 0.35448639760886136 0.8207021135481724 3.8007125853818975
0.3537910381104281 4.787755440776239 2.523476714977406 0.797261497918833 4.739953799555655
4.8399481091806535 2.415982395229052 4.81754590484258 2.5331412765481964 0.5085558736439888
1.2679602666781036 1.2282707135679054 3.522379763162914 4.0247869636524145 2.8107020228022335
1.4793884153605457 0.41514107900377684 2.0414795029688437 2.8669027535604696 1.8599696091610411
4.758325065483574 1.3937697514888754 4.981789910569862 3.2214230725435336 4.766516746081305
2.24995926304902 1.2255932789437756 4.373380912654805 4.7025973677743185 0.33156694831819933
3.9378717177830094 3.319155360653337 3.1835732797441345 4.99260415790123 2.8021548470435316
4.230059181402073 2.070253304937793 0.8222906229198279 0.4225026062856535 0.2707132577081267
4.939806554856709 3.9386799082162636 3.7519340194081883 1.5054220523147188 2.8626463149347234
4.724716432746944 0.7296408287812722 4.67377332377307 2.1880435305270787 2.4707200904734448
3.9119992534816976 3.3235171580113416 3.0168268777502 1.122764495549372 1.9087602303942504
4.198717227700123 3.599007925685837 3.902304940938107 0.7000080438048728 0.7581260216767449
1.817310185419791 3.4394203257199902 3.582323085605255 0.02236701704746935 1.5314671008935883
4.072666443452141 2.258705475356334 1.880212045023904 1.0751575405656921 2.3054167100578304
0.13614727009886307 4.666329467157315 2.568687536066782 2.926768091624062 1.6260360251695243
1.7216020491371782 2.4258142427033946 1.058362196318869 3.27725813529594 4.8413878193887525
2.8925341940556337 2.6293101388666082 4.319748593659854 0.363292557678051 2.053844829932271
2.314374842490448 2.6215133881670387 3.847615419726581 2.388618904159175 1.42929517895649
1.8853510625703185 4.5514560592123585 0.660354374500316 1.3423432474680586 0.38235932513551785
3.673926798645696 1.9284313400686797 4.351840207785407 0.3541202839050589 2.3453733027243793
0.5369798142163001 3.494959899526442 2.151088715892342 1.6963804219517975 3.1416616966362594
4.497295594064274 4.173473196151455 3.804484038993869 2.5506024595601104 4.184457505052415
2.8443016972284196 2.494814393764261 1.0956444343422715 2.3613386445488405 3.8443570498627517
2.0400937253328966 3.5939849339762104 1.313191673734555 0.42549828334673134 0.4129706733563865
1.1204467776866356 3.4201165034921575 1.9087597334230788 3.4534632978007234 4.56056201518083
2.725324645994445 0.1887658454500063 4.467522682627327 2.058872792612245 0.44518205775973596
4.815364525343492 1.905706366875715 4.919458441005364 1.5369744787570494 0.07226747034183689
0.07858378210158334 4.5474700397518095 2.848385437583919 1.903804600856388 4.496731258537846
2.364805363283979 0.6589370668550076 4.306053411488362 1.909174153822077 4.565256808225966
0.2971862692069416 1.653537500707523 2.059347671117851 0.613909277876899 4.716478018117682
3.403033105591999 2.4788347219179174 2.5336325469600607 3.6449335360877826 4.218154043160693
4.155365814838076 1.0941360334102779 2.31730311063982 0.41231770888556396 0.9447182004790633
0.47658624713562303 2.1681779285872986 0.04098909524833605 1.86474543631177 4.71343587019727
4.726999848699285 3.7969394868499293 1.5994897793757983 1.7434386002025475 0.5576127904542644
4.034256637052454 2.913271726839582 3.684139738369992 0.22154353871944144 3.904599421912361
2.0543146259238516 3.2552027598692974 1.6787091051916074 0.42115516519960483 0.6403260883252504
4.162545153544443 1.5151339390966951 0.6011207057493789 1.412307027894154 3.9167458147301355
3.107993518769327 0.8622779805736913 0.9585031753458201 3.7644171120900256 4.581175711661468
3.8005143711395855 3.9283311433906603 4.047680339583069 3.629384321755864 3.3027685219458207
4.834154048723748 2.9862657676658575 1.6424975939276287 0.7423423741466206 3.2603661649295255
4.142044609828236 2.7557854495915985 3.9540584117829045 4.215974551671395 2.4909284600283814
3.4109892792728775 4.850965770782251 3.7994442988078347 2.0148264479604814 2.4843676645989725
2.3686011900569 1.283329092602511 0.12680433973062566 3.8750417815178837 4.453998036448296
1.9488572814732863 3.9147691893253955 0.4906388278007834 4.597732884004785 1.3239715788605533
4.065372904844271 2.3286075067259038 4.254153186994485 3.038718391246089 3.923534143606382
4.812822001429508 3.991645499808346 1.7357043117791755 3.565084058960619 4.103554738167377
4.697433764552537 4.860499038315585 0.5907500504788687 0.7246449168054464 1.6164641538952296
1.7417297501133184 3.891806486773967 0.12085397706495804 2.5493392770208607 0.48522395096076754
1.0532702162048473 3.242490428367539 0.9009827656517311 3.3272162519049364 1.1247200220522076
2.508016738104664 2.20955488695712 4.29287805285356 3.1117458287470874 3.602068692281125
1.9957547346821984 0.29965042627321026 2.7102702045699822 1.2271378799265213 0.33028552013438683
4.004711087491077 3.8239834787249856 4.306369006419482 4.193993001029919 3.6849764270100964
3.984685595572455 1.589705192692625 3.5038362998913493 0.29647002587499083 1.69425941163944
3.4575120873005267 3.944214272628211 1.7882672196172007 0.5859313574416142 4.974975342637107
2.322461185292929 0.48781692097067064 2.4435003488114404 0.3701525698975927 2.7143424907993396
4.831328137132484 4.159807747184982 0.7544753389631265 1.8117574088989041 1.2746065253520418
0.09040599863692989 4.852124995551526 1.8748997535295253 2.791616153772276 4.309335653660281
1.4593561473295313 4.027853999367569 0.8243457764355028 0.10101435567785866 2.285213789103203
4.918277724698298 2.9977996190470475 0.08067154895695983 3.28376042635656 1.9108659543523054
2.871903208047366 4.589330869234953 4.90780276144059 4.721555852930041 2.523934488611983
4.305372498714984 2.898677793555526 0.5794991239514491 0.9383755800676152 3.6923049493394795
2.1722207731278926 4.926027854170714 0.7870621264255667 0.7914819923126504 3.2946890015653842
4.366421405471533 4.353302394626799 2.7582638484699764 2.4488062500595826 4.59319059667992
0.6793071701787878 1.5901690901355892 1.0933752459851431 0.7569998522996835 0.47255685040184736
2.4515289983801654 0.30241792389757605 0.9867543086300018 3.00894963926305 2.7770927161341046
4.263618463427776 4.395611621866552 4.741773314657502 4.154201864285521 2.0356064960521705
0.39432470337390557 3.8084822595390437 2.831378781562601 1.398725056911293 0.5245583155634592
3.7904613391325177 4.564226205715428 1.4342407255027378 2.2681980061280296 0.8875793435240914
1.6838104428541563 2.193406548646974 1.271839576904663 3.6445420718799086 4.481316592084158
3.6418438352663696 0.36091175118020513 4.219286328787722 3.2187893563089593 0.07536099507689797
1.4691733300677208 2.2486478212555316 0.416718859319245 1.700239106672371 4.773041054625258
0.5920627261210232 2.1513095571882923 1.6923391644760377 0.5124349547647999 2.045678836458114
0.42805426145752723 2.4456437065769734 4.4621555202065055 3.1800339732300826 4.545661085312422
0.7601680361719843 3.2400372051946817 3.9667406574593174 3.462464208508014 2.2036370453391028
4.35510698322393 3.5048663737537438 2.851991452264369 0.6391986547739742 1.9815808829793728
1.7731983363106911 4.260129944071056 3.813330147116546 0.48010622770325473 1.0412457060018014
0.33524907079747923 2.81771165204621 1.6479227191161894 0.45407217379205 4.7256222238645575
1.2326803110583557 4.5105293972403375 1.4113414870913554 2.030858281587502 4.934993351669853
2.2049710606682362 0.3782668423853275 4.0902188402044555 4.108662468217043 1.156776794024309
4.434003308639607 1.6969677169642516 2.390630511620364 0.06909644513063751 3.381600298906027
2.176875380972948 0.8156873129098402 2.0405838719945724 3.973136331448503 4.66474372877719
1.5287689755962246 0.09220973616784478 1.5041740529968024 1.061345156652211 1.1800198245515232
3.7819384527646225 4.489835365002178 0.9142064523843707 0.19440311805675792 1.9944723784653124
0.3836006421766991 1.253424942191187 3.0089502103851395 2.0820570177161986 4.956750386553205
3.9714291622455935 4.965907571065098 2.5179883801393843 2.77857504379159 2.1927173377459046
4.900702350440514 3.5265340709547544 3.1786738482317167 0.8196674986260671 1.677980380903582
2.2657534076430412 3.755074357680963 4.793052620131295 3.9209986792567038 2.5931330661373253
1.052255953900828 4.75795110416118 3.7967851258151493 4.277791416276516 4.6666548942159345
3.789107332322206 1.1544272443349013 0.7071458378627293 4.0469467043001375 2.988917654364738
3.7981230910937342 1.3705407666060494 1.907802707506054 2.5043489180179153 3.2755578932902147
3.214734072228522 3.578925060473808 0.710960880243065 2.725248934526853 4.047706888392937
0.07087464565345425 0.35232299512815424 3.8591939026019255 0.7086172330051099 2.520647718620357
1.4446109000700154 4.300106821585844 2.315917372270071 3.255189880874851 2.220829524853144
1.949169620716857 3.5267696351555573 4.597302392835047 3.6120588852663054 0.982381618511991
3.0117452610818596 1.3406030245510832 1.3297955981348957 0.37675500373188897 1.4848441783975415
2.7786910524896706 0.561606434512838 1.2961270665610047 2.3068122193336227 3.7003376120899576
0.3336139663833676 4.5339510135480126 2.264564465500332 2.6617735209742523 3.0846168943304244
0.3701703510892085 4.356941209430294 2.770352696734353 2.1850832897441315 2.11433909658719
2.032621048483636 1.0741748404552482 4.884487465602917 4.178815760736045 1.3198759720543478
2.3503128792482664 3.4232043671421075 3.6306872572903948 3.0551374448884894 4.73869989545655
2.3946045725622476 3.4180559408142033 4.288175690269523 4.426758699496037 0.3439345218811446
4.9163421240657685 4.686415214309612 1.9163330080767111 0.9856151269721863 2.932635569530885
0.9860230411660931 0.1761109644561426 2.7585320541368348 0.002687893089961535 3.8334545989732405
3.5568540608955113 4.874519193159876 1.4359319201634035 3.2779211037921128 4.82142162281609
2.8960005998461296 0.7821297820947437 2.307130702296407 1.7848267323010587 2.6969325875171646
0.9319189433354969 1.0862877143738014 3.0958831919154415 1.5122185460940658 3.1892612880408358
1.596044218675231 3.2287331606147465 4.829732953013257 1.80699754908628 4.825646664019621
1.0186623788496296 2.718659307345446 4.379888459862652 3.461628993924454 4.99998385012069
0.6981847776554062 3.1680743911926084 3.416169372332836 3.795338163374739 4.3707327835689105
2.844067761810629 2.386271443956762 2.944753697616017 4.385921446187898 1.362408853398741
0.5123023376675911 0.5122992734477971 0.2732008780678069 3.41154468367844 4.533426431809769
4.909595787958165 4.698146908894299 4.729378669458114 1.6466787926129733 1.29733637764056
2.10346726080883 4.1734608506097794 2.9713603640598834 0.7580207113978221 4.659031633049933
4.703672729993919 1.472479537830837 4.077542692867315 3.6702274756447735 3.9383135937528886
2.514035395372291 3.7502996042273744 2.8147512105219303 1.9012625131912342 3.9021587112806895
4.953801665829627 3.649391356637461 2.9186094523343566 3.0747400026279226 0.2008677281346538
4.333015275673999 3.9051366061672246 2.686237281061043 4.52830146767984 1.8383515766908594
4.080180138836323 2.933037384546621 3.6840334754269493 2.0985442256340905 0.6863443323432733
1.5215228091182165 3.188569179367202 1.2032921069364027 2.9381892470416715 4.9201965199988305
4.492435175589693 2.065188155818353 0.48250980951341504 0.9418283741216538 2.3353869224811747
2.697846489228406 1.850275716074445 0.042264279798853166 1.0257239876810276 3.77886441888345
0.13793027104790578 1.422265869310833 3.37985642710953 1.7315630852856934 1.9522381957557062
1.4150899060911 2.7441287226723476 0.9152295876092476 2.5931732470112974 4.526194888266608
2.079255458985706 1.7722473936399197 0.6725347529448339 3.7624736416981714 1.2118481285008154
3.573957496391383 4.0139352313816605 2.9524495381195144 1.2398866377310243 3.6192321769099305
1.7514233455043864 1.523120113387444 1.7931746955155976 0.47318260952971314 2.315269076322658
3.4301328444507364 0.2576040524194029 2.543863970176903 4.432625843249519 4.019883152222681
0.8435889492182108 4.518905322568727 4.120733461731369 0.24256381423845286 4.681071364255814
4.898831025048682 0.9762317749430677 3.382736042796688 4.090239806951925 4.991009212255328
2.9918994651565463 1.480275889683082 1.8437587856100586 2.0478486674069103 0.6462101722612656
0.18663763142323098 3.8415516187589556 4.546638110740319 3.4756637474339245 2.242211899195436
3.7569589346954517 0.8959086310603537 0.8906827574203413 4.75927848417141 2.4757771371646493
0.36379638879619536 0.7028207449617269 3.27936279367985 3.7441630054135864 0.46585344901175274
1.7103565468529125 1.960929449970528 0.515979061645313 4.715985879112462 3.755821845459107
1.9388695255177602 0.48968379553652297 3.119565307027142 3.579180362768435 3.3516009995808145
3.1306519256631486 3.1972893798241735 2.2794822152120475 2.362973037793657 2.2339918757431447
2.0964255689986597 3.9204222912250875 0.353212504460807 2.5358564329674493 1.2959052932960997
4.908798796538539 3.901933977586032 3.9064873202553443 3.803466413856467 0.4579626944803228
0.6576194147827513 1.1134302354522734 0.9654187687893717 2.3283024401511425 1.5633812310889361
2.035899061948836 1.2813536041602318 2.502673900591092 4.013786409113939 3.4667025046813613
2.7831712476665937 2.2625047117377632 3.8688900694171737 3.4629998958499457 4.107100149263078
4.057564237707377 3.0313878462284065 4.585593116023658 1.409406684725275 1.2829249537879144
2.711455658628096 2.364351932663677 2.098302280730682 0.181535655314084 3.803287935058287
4.973056668286169 4.754956124548611 0.3621653716210216 0.2169811264900895 4.077800847924222
0.008201325838912421 4.4236714610148065 3.454020710046204 0.3882963596640576 4.505142766816057
3.4411844472995363 4.813361862636173 1.9293310585650514 4.388600448585671 2.1650706168634986
3.7961743036871196 0.3615627085348122 1.1090992086759917 1.0048078708989794 1.9400992268604171
2.219328156731923 3.3780550275758827 3.9291866402962667 3.4831921668659485 3.178691142210343
2.4706146689713844 0.5255795563706278 4.639603158187565 0.14901968089682804 4.115368684720272
4.398780098989486 4.356544264317077 3.7824894339478483 3.072141598736073 0.11168928620415186
2.15436359736917 1.195992171803701 4.6197600817993845 1.5026085075243993 3.8485421571897183
2.4895684817864194 4.54467931991302 3.392578884010184 4.090076794308256 1.1793333344914165
3.8866141029999173 3.708164804531824 2.6041910685939254 4.185841187865643 1.0983717222242728
4.917574752161475 0.9780740566281398 2.537375530035351 4.081881605521578 2.987925818021096
1.279710492810886 0.5601989289098236 4.7944692354677105 3.4853797676811293 3.895357937211971
3.5343373882740843 2.9893044974457146 4.615136543046806 1.7501329773856429 2.129877538776333
3.6080609673220065 3.002841260815932 4.228620090380495 0.13590101635797158 0.9029752880747305
0.9835261845203508 2.0542565250960148 0.22205798544597255 0.9794396181634341 4.980899505089051
1.3898214617794036 1.7999241026237434 4.8928773086428645 4.614087670328938 3.4333232500159694
2.223483305786576 0.5574138116204086 1.786197283953792 3.991949537453245 2.699296247567128
3.6988733366879893 3.110545614427625 3.3379630654004484 1.7588174140493296 3.9383892607852027
3.205734576241006 4.560123035865442 0.7006787856999336 2.4396985411800785 1.8793467702928601
1.660987806011554 2.70533119892147 3.8239084791346483 2.6494949302779887 3.586288917715128
4.347320001216519 3.915734716467863 4.580673331891244 4.2190002096334975 4.1668449735738875
4.226338598424018 0.18348701692245228 1.5612168408037952 2.5481945851127854 2.7031321779729254
4.952294224620925 2.2358682208067497 1.7941164255014437 2.8306813277939074 3.0160884308481473
3.751118943553195 3.42501397013499 2.390207940063857 4.2297012950574935 3.9900837905432356
0.8386008744327472 1.822639629335388 3.428351071724757 2.2296886804852885 4.589885258396293
0.9059045421698814 1.958365813638926 3.681773396285753 4.972935035225916 1.6823421454471328
1.2503131896981057 1.5138203205382754 4.450223863097071 0.6681881368544262 3.4443340361382497
2.947941512959985 0.7281396082834196 3.8676003189572983 1.824406535987075 1.5337990786764015
4.247228246393027 1.0077769586887424 0.7100869754738642 2.935259431805037 2.162785538107594
3.1980662317244537 2.2508473205399264 1.350693841056324 1.5425912251928842 0.27399279556405143
2.0351887598428053 0.3905185796082339 4.8422553786625215 3.355448687860058 1.6910923830155085
1.378750498403118 0.4602637018960326 0.014404854907791309 3.2151991897680494 4.958725540071491
4.766956980709528 4.264940871405627 3.2804786755483195 4.658610649430444 1.0745718864835236
1.6860438367426445 3.617260066807347 3.1630448332108276 4.9666088155814165 0.8601133630357344
1.6887736070720716 2.0939080712490874 2.5273135050770588 4.977328552050792 1.8275432370153482
1.7429781502615393 2.1173038685585484 4.519016824057406 2.454666606425434 3.477382726116369
2.7875359652419647 2.939351287431914 1.488171311495032 1.3656437497543776 0.7429412219771958
4.9113945694651 1.6313096525637372 3.645759270869821 3.3854940351283047 4.5403751759737325
1.0779719071727056 2.117605400261822 1.471197449185837 1.6992340713684595 1.4953472226115254
0.19175659484715724 2.1555487979411865 2.4285603254342836 1.8217647071583132 4.919356060652419
0.17634986013636 2.6462146388460903 4.166723744703417 0.9587727125673023 4.282635772571945
1.6500442457368802 4.7814622936035835 4.19762738718796 2.9937833930957236 2.808938117133111
1.392638908242566 0.22996870331823516 1.396078879234592 0.799204126836604 1.8018204597459753
3.911629585889831 4.182456158748982 3.9191504193794273 0.26044437252866537 1.882712057165568
0.20591560693331346 2.8830277115934804 2.7216574692132394 3.2812538633487613 1.955047089874753
3.302151846300517 1.8930880351354895 4.815230941269687 1.0121605619001266 3.2535641186643245
0.33456747787461716 1.1200220626498114 4.620343771991328 3.426139132192189 4.8714063127885785
0.538441859151389 4.802404553307299 4.38651032588123 1.6760792888136673 1.3024485547242515
3.5813235882996786 3.718387231690095 1.478283001385916 2.013752492773749 0.37316070445661376
