4.2253470748282185 4.901472474319523 0.2787371900649033 1.2444651856776705 3.808333758387929
1.5403707549373529 2.862860599458261 4.085596108347665 1.1279155635063671 0.29506463011963524
1.0534026550434439 1.812044897308731 2.977144337821611 3.15905763124267 2.1164595192349016
0.08547745851421207 4.224825477966536 0.7002588919102198 3.341529138298707 4.6039717287612145
4.7456662664068725 1.2344641879873175 4.678228457117221 2.9383840911591412 4.769611689078639
3.729836812765691 0.3627130765567438 3.2732282299401625 0.05003514625762817 4.199566856730735
2.041606460414794 0.8527545782886026 3.112916983159039 4.1917493993138075 1.2972211506787805
2.0267563098982007 0.8773952247635863 3.0968200092304947 4.757559140515201 2.10899426361725
4.779137733786883 2.435752046780099 3.7407151876458187 0.8171433779219156 4.501613001012654
1.385508621092277 3.07502894782402 3.3614185445394695 4.808723159401407 1.0706467452858492
0.38553490771607524 2.1797384803662028 4.623942204518354 0.945079618768554 2.1438256674535454
3.9418195730947048 0.8104164065801894 3.4987390803513736 0.14223356503624274 4.650660319392786
0.28739613561898636 4.666650010457915 3.1407423927139817 2.696566254541221 2.847982129974262
3.431615355065328 3.8764019766544333 4.045768539356163 1.32937490335306 3.65353697908897
2.2229956436795417 4.089477201280828 4.5172506320050685 2.7473692372168426 2.4293782706329425
2.1701642507398033 4.85741808201685 3.490253721505362 4.069539701617327 4.8116561086696255
4.643106034229866 4.583413146189973 1.5285362010996961 3.624538209715933 3.896263731016527
1.3434537051264401 2.0381858110125037 4.0730824443660545 3.9477325540312536 3.103085598502962
2.5045942415694484 4.688736658739944 1.6914363971881619 2.5301710029508477 2.5571824917075374
1.5542316840883252 0.5006925552167718 0.6105976700661636 4.119491212240591 1.3872330515599074
0.737240967928614 4.942278763976881 1.4142474513349323 0.7041328182143053 4.268465664597679
4.178567645336007 3.5668127991330474 4.898304072967601 0.4191122031204364 1.9212485458220374
0.1415969342553286 3.4153194745203095 0.11671882888533713 0.02473461892667561 1.189899901652463
1.3646801553745314 1.1191135566344261 0.6671544947287134 1.126783216301877 2.155232039922997
3.1957764492154235 3.1377491506366284 3.9706804583279345 4.134607097627984 3.8254817840845527
4.26435019130021 4.273645095039404 2.771081637456685 0.6621863381389859 3.373501134208196
1.6198894814614928 2.9735123966620334 4.410423671385271 3.7087371749984404 0.7042488974098016
4.598161874728837 1.7880712536896364 1.3814173002283443 0.5893687327144637 0.13413392200055552
2.064465036544507 3.8483297773288423 3.485690920804016 3.955408638871138 1.7158621880309082
0.4172763984300992 1.6169149981944493 1.2478846725419195 2.297498485996498 0.5440262245086824
3.4524531226930666 4.10412667237365 4.553165941802442 2.0339392004049945 2.6534325403664827
3.8525472298228722 1.2273155827438242 2.725279903807266 4.174339892837555 3.378335050497866
4.419679781969695 2.8170713464888437 0.3676011162275872 4.01944497198235 3.3997249202176603
3.96085011581309 3.571894028213389 3.3271690537783827 1.7257556963695215 2.6653994448618095
4.651618584859001 2.33129309688233 4.645657273557105 0.6338352235675365 0.40290770690995625
1.75305377758673 3.065122075603166 1.2596232272512475 2.7233371441665244 3.4977243674859433
4.983738452203003 4.130573322418223 4.268957575855806 1.8365975714881067 2.1608946481201805
4.580109385743569 0.8307664677449728 4.921701797101614 2.2958138719022663 3.8959660844929243
2.403372580562431 3.9152727740114206 2.033962951929478 0.6926181346155952 2.735902360364819
4.131817509408672 1.1322937581561736 3.107074817465307 3.1008024835858183 4.363047433344055
3.805402288855463 2.6915549692949186 0.12552784382339144 0.973369554150102 1.085778774053889
4.67347102572592 4.426248082188568 3.056598782063578 3.3019609341835543 3.7563289464187655
0.7149889752592303 0.6414099801171164 2.784380819654651 0.3103263609708856 3.02007383077607
4.8585674123527935 0.9093362307011488 1.5418222263985943 3.6119714097359505 1.707630521987245
0.6545165146390558 1.953309059682447 1.0406554787401157 2.8288861715442017 2.59776350594188
0.9627067084301849 2.7291979944613196 2.485846524570068 2.4540782961500147 2.5621302161307895
1.2690227947219512 1.7492821985328528 1.4186555308213478 1.2238404530684355 0.5258464335018326
4.184827462304498 4.443546700421389 1.5991903371601217 0.1244766376107348 1.8216561867629266
3.7438618701678332 2.445871176370915 1.3416926603245038 4.690727289119972 2.8116009604696295
2.7009963596332573 2.97765638727658 0.31199542770057376 1.2004895737168586 1.354804293940095
4.828452084304577 2.1602068747521157 1.7940489548709952 3.7798335148289617 0.2057694076737726
4.750926018163844 3.056920920940139 2.9147766488029387 2.4917631832508382 1.1988235197719366
2.577776909288669 3.681330712987072 3.008150675573624 1.144716076896456 2.5321484515026556
4.980247415584049 0.4243604517070376 1.66932030889478 0.05696277889331025 0.9192731603439236
1.982142640215011 3.8219254709206094 1.5797359882066382 3.8979713104328284 2.828332367882989
1.0145741760583693 1.2778492136391488 3.567647539446283 2.82688610128093 3.1375297974214087
1.2554387196346002 1.5166700231585817 0.2756571233163163 0.5605346862921257 4.1214579304288685
0.8676478021369072 1.7729472461695033 4.741029139153211 0.609700036866368 1.9506536342159797
4.173577637058859 4.418773546125818 4.43654360043141 0.4339076834428862 2.6713176907670233
0.8457648165380699 1.7029780238078096 0.9977144686296785 1.0325541290034073 1.04379918174972
1.7128969668664618 4.001460933296979 3.9941438986674074 1.7043506690654409 3.675065626114754
0.1640748620946475 2.580957151374424 1.1674598325105152 2.878447269024539 2.1300901250371234
2.462696969164809 2.6282886986176246 3.8327971507405447 0.13455272579666055 3.193558782569074
4.656022965266576 0.051474734706579706 1.5547088384311936 0.1947340280167581 1.432923017798449
4.691954632633626 0.23200252848658176 3.360417096982405 0.08477422525027145 4.903533354202249
4.075795572292501 0.3876221394713564 3.033811519736207 0.19146577669628184 0.3714202451996651
0.14492395996617502 4.395994613923009 3.03778337183803 4.527905434598328 1.1881049805884414
3.2145002993534257 1.5888260466757376 3.3314235037035234 0.26079890877507117 3.242443641671924
4.018712434458754 3.637444330107424 4.429775724274755 2.06819350636077 3.5695407801845147
4.354713801894193 1.111094549374974 1.16213841546993 1.4494946624230227 3.1550869428479613
4.759325090548448 2.8463143895616434 1.1348364508716697 0.37459202916248435 2.136569506949547
2.066573753285776 0.9646248036941446 0.31731002137710407 2.0806605638123283 2.1799016661558364
3.6988131989158624 0.1328828772158619 2.3879156442801293 3.2110688224640214 2.5890124744872134
0.3180194458154939 3.427942601612103 2.065665051593719 3.0190359761658723 1.522113338219524
0.8042136886556683 0.6989922253478892 3.003893146145588 3.271434880275472 3.952831366859183
0.3972935577095593 1.1844924338400036 3.1587154024074326 4.637892929190285 2.7948433006346014
2.1665465027926256 3.8736088204549226 0.07355883244323069 2.8704901720721585 0.9657386936815521
1.7398899137397121 2.0943646079651215 2.762314220003433 0.22981936794339575 1.7858831314500616
2.771978356361071 0.5868091546047494 2.368915928376646 4.639679718121051 3.190026898145295
0.6641099982365062 4.702456334163228 4.349208116769246 0.14945910756220704 2.9607869589310267
3.35306944179933 3.0537193458673526 4.484803638335316 2.024105856701164 0.7444467213675421
4.220539691829108 0.47662609310814896 4.14865478765135 3.1915052733810585 2.9767485106357277
2.8781173639780233 2.3049617493604506 1.963416815226871 3.7497465043248637 1.3010674117637815
0.2385802972293094 3.1227634832997184 0.30380288702909264 4.739655715731687 4.854202090744341
0.04858326907874022 4.21125142656239 4.6700405599733035 2.9253542875866394 1.1083613445005902
4.909749353904803 1.5738866386210533 1.526866381357268 2.6154430236274444 0.6472216840578698
4.166306833481207 3.6737976928115073 4.921223540774433 1.3346919070159968 0.18494825360113099
1.8568384978670338 4.271045080203101 2.9898795215612193 1.8594703695380126 0.3741148493098151
1.6935418095237298 2.9926682698138074 0.31140590153576675 2.917695335035426 3.505460118773974
4.883465132391916 4.769058556575796 2.2045326838096067 1.218171572923485 4.348258085661884
3.2299139407357664 2.857295136436098 4.051378769151118 0.729051173356246 4.100080476659738
4.254081883484711 1.2363100472953796 0.7967181809095392 0.11020084674305819 4.792065539600138
3.704735296187666 2.6301391970600725 1.2250575635066436 3.880550255029685 3.642384663021253
4.844430913806974 3.395303068735563 3.476815999736985 0.015078952158040226 4.328412352336979
1.1051685555608126 3.746979571438722 0.8544291736199028 2.576698135268378 2.7801077614403384
0.30747941187428574 0.38026628010831454 2.9848158382665795 2.87657019524002 0.9520021074040502
1.407395570616607 1.2112436102917357 3.495828155527001 2.5588083146468383 0.9854985409043482
4.898787220897619 1.5063518210633453 3.3934741449108703 0.29872203272998166 4.835681705793236
4.821373518641571 1.2509896106030722 0.4204957236478707 4.191955872808766 3.4202321774362816
2.833998980112299 0.8982479111035752 0.1844670817412175 2.251834954971747 1.033355941491526
2.364908892638922 4.316863660716149 2.0317033565866454 1.993506776570817 0.6761146457962947
2.943504054444075 1.2330091522879187 4.375954365118969 4.920027414657363 0.9713100003254915
0.12547994815345687 1.0141627241912903 4.0179158218099555 2.6915101946336932 0.8248721409640197
4.445487446151997 1.5281693887234171 0.6527352133877135 1.1147578974076238 0.19588168038673415
2.195913301835705 2.421306226252851 4.338613770433321 0.563742767947687 3.3713485657376685
3.273955113384883 2.5553115827994115 0.3752562142063287 3.4288045025606033 0.10420578926891799
3.806178414215497 1.5906036494320142 1.3965323729083357 4.737956856933495 3.899960474363966
0.2665722536376275 2.9169995137518283 2.7880521966024983 2.60931220822743 3.996727072218511
1.6419197283503402 3.357783498631596 2.145704263354432 1.686686512043385 1.0803381787170325
2.093986598097585 2.980084503506201 3.6564193535837135 3.5531212507934744 4.018221754551235
2.883938173388998 0.5377113231570768 4.424690775863383 3.4640605268018914 2.4435127826953904
0.6127635209947541 1.0680888937760185 3.2944087474844252 4.315211283878863 3.3738938865354617
2.4919803685444384 0.9883005189569316 0.5182658960251119 1.4059447493362809 4.03243283168883
0.1295028589063324 2.1113556985257014 1.7421322244008874 4.789294522086744 1.328742592380749
3.5341129546760937 4.620290973596635 4.018169504158957 0.7336563959530207 0.9979402596618592
0.3018766758377961 1.821823132594108 0.07982808277242015 1.9845317487373944 4.957387427118516
4.234290253722183 2.561732778078922 3.223072233406417 0.45870308279121086 2.337238473359491
0.39007265949527525 3.698329587193375 2.118244749386189 2.8127695684874277 2.2285898083932536
4.664194298647971 0.25361485314122856 4.036301917213908 0.6123792052492688 4.650999928857344
4.023622616881263 1.7491475983444644 1.5772704267266286 3.1968723046975036 1.8217029714689619
4.335203453580302 0.8259910016738131 3.8306040949816236 1.8455564080521403 3.1541761989132384
1.4951301124424266 1.1840301143501293 3.797703644830259 1.2275142802988381 1.4878354547513695
2.1429889152882757 3.242145324584736 1.5759043097298924 2.0867227491499367 0.21147479835160798
1.410329557067025 4.3328641798999294 3.9796555267158 1.1100824412484407 3.688476943251296
1.1979165689586742 1.1317694326509298 4.848266006408226 4.378608481686103 3.3319323370752336
2.570336895034205 1.3886061602954052 4.010138657158613 0.6981703592531241 2.5302328654025663
1.3560222351441054 0.22817027230379094 4.974466841218716 2.6646763115231624 2.555484549598825
3.606528000291671 3.602676868030745 4.606709352194959 2.6938862912723645 3.4302363155671305
2.987903217454847 0.27931927464915796 0.4095339340436893 0.9030985414903181 1.8670333872711993
0.3894924810477446 3.086055850913168 1.252474727736892 4.872030841398192 2.033154277172203
3.6957918127940577 0.14655401653800748 1.810180767021613 2.1327889526260275 1.4478981838679539
3.787705162151921 1.0571897153813996 1.6587193095154829 1.9722210559158315 4.76560912169831
1.4178770474536506 3.736210844699235 2.25039759234468 2.1820442780405163 1.5811914139494059
3.183268281132894 1.1618898982614345 1.068746094343892 2.411561289321418 4.477644733592453
2.0632208532705567 2.1719867877524575 1.8975227651289206 2.1217656376292497 1.9030833768347777
3.83526595288217 0.892427990754936 2.024985410961742 2.5471741558468333 1.7841112192269815
1.5082846428256347 4.835051959848762 3.705719482318403 3.0391362163271705 4.9150250228431105
0.6030016767198448 0.5005909649280571 3.3397456561088474 4.6829338802503955 3.9341279200676778
4.914114848649055 2.5866568601439495 4.885585240108824 2.2458629983540135 2.137313367303859
3.487690506519966 1.4458663638733267 0.5591032460025158 1.6909996533339544 0.012166994760894334
1.1622860243306277 4.34119682342779 1.7711136450178673 3.858772137931527 1.5699504341965642
4.787877502384857 0.35024781942738614 3.7635212847090305 3.7616560831919004 0.32086398404898464
2.980106411887276 2.6834471452530972 1.314422048067615 3.3871108206691063 0.9695860333923761
3.727888222792199 2.6694561809192283 3.3491720452404006 1.2638557596331785 0.6869457022519698
3.8557069641135016 0.32402243685314636 0.4912586062110508 3.87185400411414 1.2778273647267664
0.8818215473120539 3.9219804583730418 1.1610790799328374 3.497741561709918 1.6460657983204319
0.5781914931528614 0.7564203031885441 1.991295601396138 2.635727456709733 0.6042620746612892
0.2338956788355423 0.13275252055008735 4.439829752330269 3.9859764353943583 0.25303246217505515
4.60479382624061 2.558435233632503 2.1931815041734866 0.42819331846839725 3.1758110971480757
0.09597493257374079 1.0411194685721288 3.0818093495528274 4.13413650754104 0.7499897588826576
0.6064854234038114 0.13970278308979345 3.262138522603852 2.740149669225571 4.588969322134176
1.2626076467034286 1.821398384590132 3.3661079980205733 2.5945619872750965 4.921336860855872
1.7872040541946477 2.4351308635612305 1.0219310518586715 3.529049909717459 0.6105207344310826
1.0042949420251372 1.5936161402713156 1.2930157062682297 3.0492868395375856 3.1237304124110543
2.573177944554672 2.0932154272348455 1.0135264712552146 1.497480591315422 4.513582978402576
1.8219165409359583 1.4017449854732673 4.010166480365366 0.08218053178452922 1.3354005717747146
4.143539355998626 2.0180466523470835 0.8948038239287348 1.2817399093234232 3.201949883680231
4.185129798864809 2.9122248176040815 3.8220586099813234 4.777015525495001 1.2650396872361154
0.9277356928498554 2.8022804059107105 0.9997010868713274 1.8617891056184748 3.7145490167776316
3.23378746838138 0.28055038729695836 2.6146424238334562 3.1223280329478547 0.3421451105423451
4.6273656065867295 0.9118861441949239 2.0461828954369583 4.674143460763705 4.947001691550477
3.9355561230125935 1.7847432838094157 0.00436312660864524 1.0373378408505212 3.4737830181470497
3.4408433038124437 1.6208486902547892 2.6945240333113514 1.6214076178391452 1.9395128968119253
1.7817345074324127 3.9343896075731473 0.4211891729360512 2.5410289770590904 4.288537526189246
2.565071476126199 3.89202409287582 1.1379655103355124 0.7215514595898193 3.4055247937928055
0.8081605450918145 3.4602067898193805 4.021536869508825 0.29231686622684105 1.926641457125079
1.0369888184882214 4.487071881858295 3.68553854231302 0.19808604568156085 2.303572015711586
4.479626554507123 4.232324331320206 3.6163567578581084 4.33072701759211 1.1991133535314447
1.9317192540591521 2.7088699875274176 2.850380476476711 1.885385537884946 1.8026990991179765
3.912329314813354 3.1130416678386523 1.853130330689472 4.680354919439932 0.6704016424607295
4.8306734802656335 0.5023941593748726 3.590066990289702 2.955998326243285 2.009635558053233
3.9475197213376894 3.2280209918979703 1.3830501610783226 0.24435404342493527 4.649189492879263
1.1300572863759317 0.8378240071828619 3.5433761332813782 2.607364475161426 1.5823449689561508
3.907507247758557 0.5285058092606898 4.261423849312325 0.5012450131172996 1.453212754465532
4.223728518613823 2.6846266037722657 2.7432063092746195 4.939320250662525 3.121613491124334
4.470271652607395 1.9981210049675728 2.204182878721319 1.9619666282027848 2.6300167256584
3.0694546215963574 0.7837464162185231 0.5709219771407997 3.125041422014953 4.275971319664993
3.0862146874962795 0.6433344297977556 0.9985592536015514 1.6380660694443288 3.681985645137396
4.699941732189272 0.4169954329575276 0.5125552941001199 2.185587051336757 1.6524425926166146
4.873234251596868 2.3992694832725574 1.3136424710044152 4.170614500278739 2.1880617510659195
3.0823167032582215 3.8142728276846465 3.8065671782593875 0.9091146267773392 2.2909795691963177
1.9306549574797245 0.5801945812566178 2.3716278279752583 0.8646915767847635 4.245617363015533
2.5549605613214554 4.912903863354974 3.7394816125505113 0.871777404727333 2.377028038090562
3.5126838445512454 1.0897163439925124 4.922104039230778 4.188902485902659 0.3251020425993667
2.9716809621715647 4.104692714007735 0.45016641505587096 3.051243281625418 0.6585665199220525
1.9707897712542937 2.090638233415127 4.990579442175472 1.2867885915237454 1.8842252077083954
2.7278426247644374 1.57669643376587 3.2195264259529477 2.1891890118256665 4.277230222793647
1.2194968431782105 4.240934344068406 4.165421534139078 0.2626987525564567 4.122794124775956
1.227657586023041 0.4920820609617338 0.7719225534169988 0.235016799359844 4.234754363684447
0.7120309426180155 4.347720900024862 0.4082774171917519 3.1595200997853907 1.7498027750830474
2.6345601642632204 3.0784854429856394 3.4339509517429843 0.970634917791664 2.9496172557125453
0.6898642410568734 1.3989600081136295 1.746042174529319 4.863873389578516 2.4943246684493543
2.818737075634478 1.2301737142343434 3.7623451007201556 0.08642692657932327 1.97437497374302
3.6830466080844033 0.25002593474185264 4.219424106543002 1.0922107104343732 2.762832579478837
1.8990240536637593 2.0107354096363235 0.17148095341175007 0.35817494762068913 2.644642758820815
4.210030501233433 1.7687928196618907 0.05763880014233558 3.0067332747469697 3.758179979213503
2.379491597664107 4.935410409458342 2.5004792243241036 4.200004403040597 4.891369440410702
1.6867038879653917 1.5216931302977126 2.441610561255103 3.526075842388435 2.4059153719468447
4.640130272447104 3.68653476199029 1.5782586792578095 1.6549634088559784 1.7964527657417295
4.850987771083599 3.508781629751225 3.898320521285118 4.967884005804896 4.142564913287242
2.5366527985973617 3.1952265829509097 0.5036763845049091 2.8250014215463883 1.1727000750076293
3.4406401755966174 0.8041176163059038 1.2362422877797064 2.450690988245407 2.3297893924928976
2.0757784272777426 4.016236910873954 4.578033767621191 3.251660731262742 0.3116006479690697
1.1527367100610668 3.1980440113668895 1.6307442245961385 0.7815062467605643 1.330784027459645
4.905900743003569 2.6099060124860873 3.9778722862825457 0.4035719965856971 2.1249173921863855
1.8068376337994412 2.431610048458751 2.5294146970402815 0.3043175331654391 1.1960509082960014
2.576269273601484 1.5259472481622904 4.171793297997956 3.785055540291678 3.9328107068987888
4.852877123478404 2.5253551754176495 3.76392439785128 4.9499464946114555 1.470942878792415
4.44725099850885 0.7628648864718596 2.167008694434357 4.298664755072669 2.345109204793412
0.11968464339447482 3.047276703371101 2.2604275859548064 4.411681996852012 2.509570616896087
2.918115853981438 1.6851978188073091 4.194539448961799 1.9558094946052136 3.7493560233998204
2.4092618790014124 4.109430801641924 2.0321217450046394 4.169236202886452 3.0416931164391587
0.8195907849709316 1.1566382821882926 0.9736437714022161 2.504271369933257 3.795246925391549
2.9397238714258416 0.9150393655363387 1.7642033993777373 2.0693301579309042 0.09909790154282616
3.168553115301015 2.1944067518773465 3.768515531203889 3.089831096254829 2.0148257768184314
1.0479882768963222 2.6739627311948055 0.677674538446496 3.621134772529717 1.657145703837923
2.797556189125511 3.0147246028380903 3.3905345467696915 0.7353118298815153 1.1612771977387086
0.793318318006565 2.9972074608821915 1.7019826678022727 1.4556295003255655 1.7205400279525096
1.8658887689052872 2.960973051141846 3.8005306847309512 0.49090751660666676 0.22379226913439187
2.9591338961904388 3.753213228803098 4.468331993567861 1.6175666677023153 2.8030923357986777
3.4174697161772123 0.3349752074997392 4.606945286055634 4.389252419363997 1.4800587169809187
4.119181852920405 3.1510200821831496 1.989817773529698 4.020920788356373 3.2080537203359643
0.009632209113319967 2.8826774855206736 0.7229180599607704 2.019030568200278 2.9122691661267535
0.13066925971325027 4.660081201143586 3.7183675545887946 1.3422347581812044 0.8371035868928334
1.583319888356044 2.872405011715613 3.6491126398444225 1.8767234916157105 1.5751019925338765
3.4674355450362455 0.36188706269042137 3.1930176379368804 3.621300358992338 0.13432377565770925
4.912189510794639 3.7701282329503853 1.8261206026471322 3.2225753576433718 4.476991197811961
3.4697760890369445 3.551492423106877 2.9638570467607765 1.4414280402345785 0.07236476659920055
1.8200775218789123 2.868337209168142 2.856635037291479 1.862887231276531 2.6430854954503094
4.382030831983018 1.1103597592172243 1.0784830809552792 2.528125414353948 2.4879928213055673
3.980695341068678 4.547242013551989 4.150378965595843 4.709126347735145 3.358200364564943
3.36589477832326 4.1711502693741656 3.902921023673361 1.7181894905141388 4.60320788569057
1.2209800768957018 3.780755069807623 2.7290767249344046 4.929370218620723 2.7556756721426146
3.60949706325147 2.7822580655459346 2.6435415286035715 0.24239782558812095 2.3072420785362215
3.267703402433373 1.595880349695118 0.05014720993894828 1.766879264775627 0.9498319756750773
0.24708070590964137 3.0159699139292764 3.4575936272365633 0.09338991152988918 1.1739504921076698
3.1655131396761464 1.1374007075541148 0.6579056985070214 4.2827037066338 4.2143532945969255
3.245877727064934 4.11958543891286 2.831924650666349 2.655501780168384 4.764741871605218
4.766764826207 1.4490694038011616 4.576241843824335 1.3847761545770303 0.697298335745889
3.827307886381184 0.10253348191909928 3.4216483285785686 0.2968388776945491 2.6326999228208656
2.976793075913522 3.5788546791377387 4.962507403719466 3.010589807788566 4.738348704880732
2.9213717449259713 4.12739600837441 4.569969707736298 1.6570651657840696 2.4982243065396497
3.3855179391336336 2.344926956805784 4.96530032905389 0.5716061846324533 2.0344600029972644
4.668473104030635 2.6919930501790432 1.588038787042862 1.964728130975839 2.31579899951957
2.8200412258040264 1.1661424203649728 2.770581213864917 4.802288630832155 0.24044389216692108
1.1704870144731698 4.555960141461578 3.5293462024672992 4.164263549272433 2.080620036241344
1.2600210517661425 2.84430378820796 1.683210193119908 2.7349401251928924 2.306430877625437
0.5961598866174173 2.3893143857475643 3.720630201960238 2.2760472307728064 2.869600177908459
3.3018851832622858 1.5218893617015055 0.16055669174198095 4.304337699974553 0.6514930291979931
1.355426748786726 4.697518879395377 3.1482048629059474 3.36578123779883 1.9501073992040485
2.8134892167870555 0.7252693844015295 0.7630368006894644 3.1257929352192857 0.8670337187250915
2.222046511991022 3.2003807521382512 1.5533657117798434 1.723900339290802 4.753596518749319
2.029986326902745 1.9668994179993589 3.061485204798529 2.846026131362857 1.962091454854686
1.497272397330776 4.823025030836586 0.6484074567812409 4.949187153137342 1.418093109485009
0.44391877543720537 4.1328739122322915 4.551130573397037 1.7523501158442873 4.501618908349973
4.631477636518364 1.4085123371696966 1.2978954269742404 2.0131870585103324 2.8606762713911165
1.6209634436025588 4.415082064278588 0.2799466776424897 1.4813233158011756 3.0759719738606495
1.2067635406783095 2.608779755184478 1.2156973504841584 0.5830263654203949 3.8683728296615842
3.2338366276215496 1.2357609221678185 4.936444788716688 2.6960782224127913 2.592068611217818
4.4660113344956285 4.157035881837633 0.12123477939446292 4.003739353732782 1.3921472791240168
0.28906683866173233 2.359003313403321 0.6371952749488047 0.026505188293258763 4.370244741374317
3.283629426662486 1.2634763717341557 1.5148736160605147 1.5898310588782012 2.7590378550447126
4.376402786672357 0.32229774364534947 1.9288356060192084 2.4060895900830848 2.0540764043024096
3.217609023320917 1.1062763963526945 3.5537744094247565 1.0797792002321693 4.709028360102556
2.9663717433172376 3.5354058744912367 1.670821136852703 1.7935845965643442 3.9648982359692027
1.2723812382146182 1.889133735695232 2.699500184063673 4.785884598097962 2.482973186054846
3.63685220038609 4.037893189837779 4.697937201906085 2.119131192732224 4.0662978592393815
0.28401274406838095 3.087175263346082 0.45053704893615765 3.5306359027385814 1.1969763680544836
1.9290929844524007 3.006019946850493 2.6983472256382472 2.6785689156503216 1.6103568135139468
0.9694375224418672 1.1980784860213496 3.55492342561277 3.1083565619281166 0.02979778927551191
0.4362466799578185 4.893108469584483 1.6395995805477814 4.357873249076761 1.6030840519087264
4.276026304990289 3.0311664874399433 3.4185926241525886 3.3285458612383434 4.446236165941352
4.519819393081103 0.30807955876731796 0.7334685313366052 1.0734721150157318 4.189923449494542
0.3881844932919165 3.4290405791890355 0.08076837699630912 3.163140290184548 1.9666137630070313
3.335872069860277 4.772952402233816 2.102713534643095 0.871946591226922 2.6595745896726335
0.7901609046221636 0.7103726381642927 3.4884271564708347 4.257618695280179 4.902122509618995
3.899889060089412 1.274725666993528 3.477937449989128 0.5905871718205907 4.861408598711873
1.7446970776018396 0.775483969773923 1.9930399363822922 3.677827827223876 3.082638526619817
4.372168495926852 3.268673391568957 1.1557521307095038 3.006959415563828 3.671601784360985
1.0322015485689207 0.9210731733334854 3.472065570508702 1.0850816839399768 2.6697955187885203
2.1758649356824415 3.870367963344484 1.1074978264524686 4.4864630035447535 4.549752952705929
0.016761380686312055 3.2120966286770964 3.272942784586072 4.077985805604442 3.626688858602809
2.464743436150929 1.382952000969353 4.801425243661982 1.426740593615422 2.48224687541346
1.2651162825931905 0.09318968012707207 2.350237426615207 3.3421093601623566 3.7479373684636834
4.342294636807452 0.42011441664527027 1.86880940278775 2.1931109190631934 2.7857372705525645
0.11196176480136433 2.805939094980862 1.7458196918919415 1.3112278452588315 4.327974068624737
0.689288116644669 4.7322397713521305 2.666248090283598 4.746633402618244 0.9311393983978528
4.63706506869147 0.21480114892289293 2.815158637506061 1.4282087367100915 2.153809195376249
1.2535832320509317 4.570747123138622 4.051368206090878 2.0479357968589214 4.483397190661313
1.1110054118912316 2.8834647269990943 1.9243643651989706 1.1728147800925952 0.816754513830168
0.280544481691129 0.24037717336815811 4.893797418245985 3.091902793501812 0.2971518906871462
1.2234301997392683 4.083585465252758 4.840579919850211 0.9993211814972164 3.0542664293901245
0.01337965685203557 3.047602477649138 4.529723234869676 0.12037253122188563 2.5689537254515438
0.9882728311623667 4.107995791211808 1.1090377262780016 1.2724005715106208 1.468185126697859
4.528454407229837 1.3986993067047804 3.2217593106506754 2.684202606030814 2.2567721575006554
3.6311089022099194 2.2128878525291906 3.012662325268996 3.2964591322763614 1.8413507722652145
2.0863318259557 3.659656774791498 3.6770072751265053 2.8711157973092667 4.27933926954798
2.5892435880608473 2.789136625403775 3.3902099286291314 0.7922827357605389 0.6565799621815688
2.9967568608088406 0.37093941438576916 0.24928795859626818 1.9615793490252575 4.495001684382707
0.13726635192697068 2.9688754892891396 1.845940637043142 3.1113508325647645 3.577640602488395
2.5973219703643884 1.5322777724927639 0.2733220979623935 3.7831701392263746 4.198488238868186
0.6475232878957587 0.16599196704815133 0.5362693814787406 1.5297694234207015 1.3694410862700501
2.2230091728909134 4.964326181592505 4.483651293843315 0.27151648044029253 2.1331896690260606
0.9263547719220488 2.614859861165253 4.268122771440734 2.1266879291691367 2.984183144577168
1.773427621606366 3.71658633866281 1.769090671093057 1.291429195178031 1.594544346098123
1.9069480440333901 2.9450179846622433 1.7345200701811136 0.009649194862972887 3.840595081855651
1.799960009564685 3.6690963375324515 1.7366987635181308 2.8647684705695275 1.2246830487951121
3.026789840567599 4.135543456483172 0.9776235924828663 1.8892121843134713 2.755718117785798
1.594870535189536 4.3761913904339185 2.911191302771703 2.1260219469884007 4.324884146433771
0.16067678745212866 0.6993221970746333 3.81449206401596 1.4504458481243905 3.8541260922005143
2.148411721135802 0.49934974981688585 0.036791036170003566 2.0177656386376297 2.6668033749854576
0.8977637125941407 4.733776014753436 4.31534593333486 0.6877662377966937 3.2683694545184503
0.8577634482855118 4.6431811708318085 4.755392291412943 2.167703643079333 3.543156381630376
0.17354371634637267 1.6461204880452074 3.940441378173584 1.9043571148639753 3.602825144228367
0.9672026396130534 3.42130309112602 2.0979856989262573 3.8304553307940696 1.2897599782663423
3.8552157921012564 1.4713207584535903 2.1259203440310266 1.9436118738534058 1.4160719002937423
1.3087336061846226 1.339220910332768 4.173248648135526 0.8965357004382812 1.9541122957276884
0.15173036521297534 1.1079515627702659 3.3462831004770965 4.13907574393991 0.7124678737922346
4.389449694795192 1.340423295905497 1.1340982943902063 2.9482995804921073 1.8935518435524867
4.3175294566407345 0.17292725881124849 0.11756626068439913 4.22271133497519 1.2388866091028294
2.01648842869101 4.964123243523212 0.05167460925580514 0.6838900055270364 1.1972037447319517
3.321267880763096 2.9923759292949597 2.2773635656121223 0.807250987699682 1.4631729674058158
1.1383884836345226 4.690158398618285 2.8118288763600647 1.0909135134300523 2.242954395890417
1.0903848259862725 1.9442454782447331 0.9114841562687975 0.2902581582690489 4.725571849981373
2.7210153836336364 3.127542284101255 0.23006669233775034 3.1037834539687132 0.10820541243744264
3.001605994392146 2.827159847835559 2.167416924045806 1.1348493096463919 4.127334623023776
2.43525809342692 0.2843850452354585 3.793908212460347 1.1349521708946448 1.4419975053400902
4.135053991605401 1.2279136982259664 4.957204253740758 3.8617806997291524 3.6618848301031752
4.633592034706569 2.1646933829027444 4.8046550058016555 4.559444663252403 2.6483556180304344
2.8976236846563963 0.8990143314893861 4.688806137105145 4.904154291100894 2.977081323537483
2.525276510463751 3.659194156918812 4.60590809906532 4.949491524636286 2.2758156202999844
3.510480324352347 2.759578749620905 2.1982423491319465 3.4570021996761824 2.274819937822547
4.436569553062222 2.611830611138599 2.817133976823487 2.0458931575662866 2.9501002518317994
3.3744240379100554 4.8319844872388735 0.41768209222165453 1.4414204075844839 4.814000683839596
2.564593619325663 1.5521448896058283 2.3802233921510707 3.21401705207599 1.4674263063057646
4.69773915862218 1.3313377115909213 4.53116816353804 0.06415274152109851 3.574159627270535
3.9576511703864456 4.339139700913933 0.77328503390731 0.053317728717699464 0.8167739041021527
0.7285621821945604 1.3220069368091099 2.5287145723077407 1.365271346968377 2.626431113731022
2.758491593393493 1.1992070658145053 0.54411834923419 0.197525897654936 0.5516716487712298
3.2482447484663934 4.7467762209209505 3.615691857659215 2.0856725363586155 2.2324966947707447
2.5688543620624844 3.800516683834509 1.1303982576119416 3.9260094945767827 4.276420066822654
2.563143929391869 1.1214826170373604 3.2091375722421898 1.577890032107796 0.42245400167006064
4.973491188031069 1.2164794602062927 3.724065151727412 4.183471166856806 1.0569171395350996
2.1306892673046702 3.4210991424930484 3.0473226671357905 0.2128083953530957 3.700776666265424
1.7670637419851543 1.601497987233858 1.6314483289582715 2.6929667097666727 4.922501897707405
2.382053516933636 0.5541097312177279 0.29454067853417587 2.471495399148427 0.9110008179345019
3.0520775958372903 0.5868979494764948 2.5695505266547762 0.0786855858710711 2.5690577839110857
3.8411175514155094 3.466580414414845 0.5777565139444102 1.1248745194107046 4.980648244263402
0.745543476053489 3.4200754020668924 4.258934990715674 4.348858708487235 3.09264335385022
1.4991087926698028 2.383995311369586 2.248826408378857 3.1112483873800256 2.0454602730995113
1.2042244736009422 0.7085105548582421 2.4260028002344476 2.8969487071517657 2.5753395446228784
3.014856202116764 2.022692523826501 1.6619966390105674 3.206307862113081 2.0432274271977287
0.4421859251436 4.729562096459553 1.9288219872598489 3.24989391882884 1.4404429962052028
3.435575535446851 1.6873897349604556 4.059853515995391 4.785266327596302 2.6258995942502623
1.209421795471291 4.25767199484905 4.347141147671016 3.0993753203605094 4.298476560485192
1.9492680935148032 0.6178446154458483 0.9687381711306969 0.010696844149694074 1.7130947226148785
1.357877784176853 2.5036608656780484 2.337938822797896 0.909369199090071 1.7786428219274053
2.6432693373932032 1.5262220358917906 4.137798683683721 0.7866036877585814 4.149195871008107
1.8255201556793366 3.906620831759141 4.31127198522871 1.7486525918850764 0.14616339392932332
2.947133411118013 2.765524205169625 1.5816988734085675 3.171136592082499 3.954809801441593
0.4880225005246308 1.3516723485481301 0.7082361149103278 4.8887852789257 2.8637027403043858
2.5433051784509693 0.8025230385306131 0.38642923362703085 2.633474127142912 1.0988985720944322
0.16541597871846447 1.5468588514810588 3.200052115536155 2.928077180711626 4.931968284095616
2.3128386167518027 1.0758891189531856 1.6921360320860153 4.3942241187075455 2.5783842480828034
1.1690860435106543 2.214997001683682 4.429885063279096 3.266186861919604 0.7111703443866807
4.947055106247735 1.3699757719741934 0.4007821399613398 4.60106363938862 4.429689236408221
1.7992984161413688 3.56957863757498 2.712364087050194 2.2872539933748137 1.7336055357141307
2.6912007224424883 1.8736322422590856 4.328916380991712 3.4149266472767197 2.1372378168425508
1.260237877694983 3.6324430811501736 1.1559729905471543 1.4723161133862734 4.771557666180567
1.0398801682137075 3.787427288524539 3.0357561933615465 4.590244443293087 0.3797321893616856
4.9098029020578995 1.4080564998276208 1.197061752405049 4.983680441086627 1.7168616654289393
2.1360609321590203 1.6378347010197087 1.6741175115414886 4.6512961395605865 4.8251835262932135
1.1506707044481117 1.381534910265736 3.5254531215455938 1.579269799857666 0.8793343966807632
2.634573360200039 3.1461130902341528 2.148902057771665 4.063559630712606 0.9857974792787949
2.7071792806339174 0.8512104260142039 1.5439703618506828 0.9239131025936731 0.6397358094291106
1.3669818810881107 1.2610008602141254 2.964066941054761 1.9477543798552759 4.271707726422909
3.64184783683482 3.0058017295145496 4.510272628711979 0.5386338479850372 0.16243464465129975
2.821262256576823 4.915509357755548 2.601692834697203 2.269478943931676 3.0182628708749073
2.434213228369417 3.9710124919923544 0.3107407166825388 1.3301895560750894 0.06466290522593343
3.4309697278511035 2.117224013392617 2.1909702616388564 2.211732781401434 4.492141335303174
2.3326898774318243 0.9602034252533964 4.533893186565999 0.0799080736962049 2.577522118175302
4.991133336115301 1.702571046814243 2.052083651828844 0.39567679686339063 2.35605915476889
2.083439798321984 3.423776275278551 0.4041933965951561 3.949228389615537 1.3054029461717604
3.406005677506016 2.824509862507875 1.8898798501561154 3.6791179098511684 4.64587008174299
3.8466447477485417 4.454288050107252 1.0445510244239724 3.25079381874764 1.1574541577051223
1.2660379951829666 1.8233248953367638 4.914287223479597 3.1189891437723594 3.7162214379611647
4.980775882830072 2.0821002433716296 1.67450468477987 4.508741094552064 2.641064770461728
1.576863359485945 4.603520193499639 0.5253802885005021 0.16210202309793753 2.941116598681905
1.2052976349681903 0.4267004856924089 4.597219934894384 1.1255518199032895 2.070924545826113
4.18959644408549 1.6085459975803973 4.302545878458485 3.586199104652878 0.4113340547730848
3.926980126127636 0.3564848893672201 2.4659468429507276 3.397097563360661 3.2128164098231924
2.930803430945366 3.639183732824005 1.3266433325404048 3.0933062983510347 4.2598047475413505
2.564941085468333 0.574876030645653 0.4722814417890864 1.9770170238576368 0.7617365928280329
0.9477943595807331 3.2195750359642856 1.9374526922065172 2.6120892242828098 4.2425951926527254
3.3403752786881884 1.6314775789585663 3.979793379657889 2.2883539453275397 1.1432939106325395
0.5479584386634784 4.75588360976343 2.2738197908552475 1.2873342460240784 4.568912741064823
0.7582282070814778 2.868411724457396 4.519437455918839 1.8396331429545572 3.7348329106167455
1.7862707066085632 1.188431529204611 3.5815310817503816 0.8248346389920619 4.786489547432495
4.1354207116390835 1.4839492766653306 0.8344077076640549 4.132268162283256 4.914171032486835
3.8263468824952995 0.1299406867177888 3.271293849393696 0.4230423979105974 2.64181454818124
0.9063560404682197 4.7759934765978205 3.489209060362712 0.05969609882561233 1.326128589120642
3.633350528811568 4.764296600885098 1.7538545288537322 0.7413726504002244 4.000199415568485
3.7679222736675366 3.890387741241628 1.463828855355485 1.6188136901461454 1.7916022464606534
2.6290673385111685 0.3809469901091328 1.2572695109585368 0.8735823203453935 3.9326718942547063
3.967574847178401 2.8146545846360786 3.0623351269803263 4.411773879135411 0.37465721443492417
0.14862234057919144 1.1611378259396166 0.31079931710701614 0.9714459937134945 0.680954536733494
2.5783515103259185 4.256894418232016 4.390061828793929 0.42558314138683717 0.7059629637228337
0.48597048662919695 3.988331111709305 2.2813187735775653 0.08186591442840285 3.4979338312602186
3.664620601961434 3.9833221428952283 4.350324553324063 3.083958776258799 4.6998027455271645
3.4978454604765723 2.1056295023909906 1.6125826556420286 2.8923071094987356 3.5245902483450777
2.2201779571777127 4.084181228844165 0.8679952723043988 0.24380068443849934 4.55211342336478
0.08198622980661263 4.112520431881139 1.0713618412237484 3.8941178562741485 1.1069141289082323
1.1930880595077427 4.662031351942716 1.4257893581383718 3.168775481851416 3.9550022775847697
0.9732509312335907 2.1613627112852947 2.219942867677352 3.2787345722868197 1.033411482629654
4.60288466698775 3.5801011565351364 3.8011378000177674 3.9018273021737473 1.1667665929211324
2.6759415791822496 2.874730755340751 0.1472420767591598 2.7931697851567088 1.7924814682996355
4.707210304627287 3.3024595936145174 1.7571893405778365 3.729229172498183 0.8039822067381414
4.568638890218949 2.196665253752112 3.569665968770628 1.0400250890132816 2.4173069602372816
3.191430436141267 4.793031590658375 0.8948761796653654 2.33807270668547 3.006150164766291
4.874496807572896 1.7260519946643522 1.7838666382264208 1.4941465117287167 1.4387449789893714
1.599459207361622 2.9836647431002987 4.697220482022147 0.8511230711505285 1.3092664751505079
4.416014184522559 1.6038890204415361 4.858510852791936 3.1352262346704585 3.5057241979612503
3.7905582901633927 4.749166001975849 2.407350839172027 2.884282894047675 1.0479084331042006
1.4740734509971987 3.1939973672884765 4.755329062839401 4.296606660650903 0.27513633181420194
3.1060745910910006 2.588899112579556 2.49667813941877 2.641871838914713 2.2894547384366177
1.025806823243337 1.90195411847205 2.6085838280602935 1.864057191812396 4.011110020538199
2.026339356513063 0.3059307339960998 1.9127885143620749 0.7085597867702081 4.594165370663478
2.714342099359187 1.2760855847691943 1.2369722662097016 1.457650533072576 1.5147198474133405
3.709348116781187 4.890797255213172 0.08152023567221389 3.414428245501804 0.6854923199658391
1.5053636712991132 0.040611145582351016 3.2860075120686054 3.4049605416320805 3.988875398114568
0.005621598366138958 1.5511499100450106 2.203360644936274 1.2748535025212888 2.580246735115627
2.27995460882548 3.5418277032848677 0.619880075388935 1.297299933938919 4.152200056389376
2.7731684120204263 1.780875375074975 4.674533360763561 0.1960339817418738 3.9120935210606476
3.560753361904154 2.992698823654654 2.6167970821369075 2.7667748154213245 2.995138745790913
4.6510380401554885 0.0039342845895923295 2.429644720764707 4.091669511204818 3.4888829379313417
2.245927892584707 0.4028645950211107 3.521588150385792 3.0211936427259034 0.9275032375265091
0.5867765768647387 1.910881885882193 0.1277366689478665 4.111356611905461 2.5955181438406436
4.920705163173665 1.136158044006907 2.5386119128462035 1.8636557433812684 4.753299050640566
3.621518539499239 4.58580008934338 0.6911907298641135 3.3541617923838714 2.013711069193829
1.5360024741118865 4.556431800134274 4.772003373641588 1.160237262134471 2.1595443045585645
4.721583520753196 1.0403721366036862 3.7663886113153042 4.86971960340023 3.03809881034418
1.2833377604602618 1.026811059843316 4.749975478892162 0.9486917701895103 4.934478036948936
2.7858607438035667 0.8930361351070515 0.23603617235103402 1.2174715403870306 1.839670679153228
2.678316014827179 3.6887896408833694 1.696351772795404 3.8794210786759193 4.633205982267379
4.277253824477726 0.7552462839778012 0.5748926132735832 0.7691808741287753 4.153245003175087
3.6751880289026326 1.3670565452882277 1.4753210663859806 2.7308845676317004 2.18534217273749
1.416591784263184 3.3605595344943042 4.254504545563125 3.838885857709939 2.999325783658002
0.537207275305977 1.3416834858825177 0.46065366614091663 4.394122517797918 3.0000084032458303
2.3082050541927552 4.885758083667379 0.40987771608832435 4.102200963128654 2.6896609054062672
4.596352719673141 1.5138327464728825 4.3618480988846855 0.6497236840879217 3.9694842573529416
1.292234988264226 1.7536157188089052 4.6152961438184645 3.182596164407212 3.9241414332463815
1.886717109950446 1.0878063751198113 1.5339523406087157 4.312230440225217 1.5030355498482821
1.8985265536512552 4.481683621396463 3.7024706611705334 3.7361642088806657 0.6381211427476863
0.05884352966525341 2.64744372351441 3.050987888303699 3.046171282371335 3.972466316139412
1.038046997035213 2.997326569638854 3.4225674783798525 3.9666505914820327 1.1164619487679595
3.8043170007651543 2.985488070487219 0.11192748165298361 1.2653408423301826 1.244296149434122
3.997564159249003 0.1098420529195504 2.5414020920636116 0.3250033657316448 0.61051343523365
2.682740038188243 4.508335751814164 4.940617546361833 0.9844289758155955 0.6478929463756683
0.5028615056359304 1.4474749118010495 2.410688131765839 4.724145109152212 0.01958247724460016
2.0183040362874416 4.186915861148269 4.718974753678216 1.3257773210146402 3.5523146646580166
4.1256024589227716 2.2109205103994105 0.9096128351552624 1.0889471171469023 3.4186921112116933
3.607712270440386 2.8485718017055177 3.3979301031485587 1.0068583924752113 4.7567272553239865
2.460069115526671 1.142095228824989 3.088967426424985 4.408900730299804 1.5076563656223647
0.4791284425762704 3.7187370994462703 1.8811212288583523 4.307625755031512 3.9661802285353165
3.2645824720947907 3.5778818980386413 2.556291592271673 0.018217031107308768 1.1694694819905567
4.358001861946323 0.9214667920880487 4.562173869637039 4.054988819735018 1.265518822529751
3.6944494969052126 1.1430832969589078 3.6338396294096835 1.0670166518844515 1.3143748293688096
2.9185335017241916 4.330348390774011 4.898068187211262 4.239260220478284 2.1905671275859593
3.527645979486554 4.0364677691263395 2.3393761576362904 4.138473735856746 3.42412441301902
1.0277852495869073 0.9463213028013051 2.25880763910288 2.704585807055684 1.1201632797234995
1.3246274524351698 3.8999904627540567 1.4057947070795074 0.0622488123247239 2.8044172890050305
2.2521535495184786 0.04120187612168036 4.714174318630361 3.673220976884568 3.4656459053727002
2.777254562186653 3.935318597191273 0.2937176323175422 4.65722658634305 0.5291006175701446
2.50799158852453 3.1700342129667924 2.0299287941297623 1.483322747232999 4.304315658545122
3.7096635948522696 4.611015723539861 4.9621211562613325 1.347001094514415 0.9505500071510437
1.1735662462668666 1.4279376198432518 0.286802096683591 2.306413846761606 0.06967284121116246
4.634815100174749 0.39064496230400647 4.775726225085244 1.831824878835278 3.374888771070647
0.7623474288747922 2.080349749829015 2.8797579287623902 2.1954430527045976 3.0511571614226796
0.4756553514036488 1.7669800625878156 2.117907525131808 3.2622013848316507 0.19408508633193877
4.490515707826023 3.4007646700973386 3.6790017075606603 4.683298051163154 1.7122426294315045
4.644021496327221 4.340094156645022 4.962949165108958 1.3174673098717467 1.9586304464090132
0.6393069868565165 2.984611694357951 1.0798069128642211 1.2639972941608484 1.5848355678214066
2.120804347468513 1.9620881631158626 2.4511813912867186 2.5230034389242366 4.319462419578265
2.110376172216367 3.993541453652882 1.8329534548663977 4.100232399108516 0.3262154946185286
1.2305652008685968 1.4496528021559874 4.245008205625079 1.874476419016169 3.024787531919238
0.11696617061337122 1.0170882953410438 3.583620073461389 4.054168157317554 2.6880638912784005
4.715073476590252 4.3970689764628155 1.5757886125772902 2.5901926223443845 0.23858742947822198
0.412548611687964 4.584346631149854 4.288000999722589 3.323597964500242 0.45613058142320917
1.672590653190948 1.1139617052939728 4.64100010003802 4.590040414963049 4.66553718043685
4.595528092965785 0.9962907461290593 4.022421343696876 4.833815165531636 0.6704500969321503
4.631129123280317 0.09543998737150061 1.5842609696671528 2.9530798811824432 2.2011684275415986
3.1974942452011685 0.5349500994718498 4.322808282394285 4.811065179994294 2.12320444390842
0.6262515867552831 3.7493922799050687 4.0690409047043605 0.07782870066925796 1.5963081731331408
4.2038903709799875 4.720893953188556 2.2604355051154643 0.24079698065299526 0.2703874535202633
2.423588933760543 0.8552531733972935 3.2406464958011223 1.5823874038172798 2.2523973290295847
4.689991194704334 3.9096821689802583 1.0602041737959877 4.032987296977417 1.714470845745157
3.5448983116242134 0.8624034921120777 2.094022234057928 0.2143784169076085 4.464449928532548
3.5637116769678756 2.3471906949318226 0.6843456116946811 4.421233981713849 2.418924429211591
3.4550543550379746 2.3580354903363707 1.0779974360759836 4.260934276711997 3.232729278382224
1.1749129051629448 3.2259207762563142 0.4175464193487227 4.787467908336462 2.5082321835476122
3.6104915179210746 2.1338510470697045 2.801966481708844 1.2352289938652172 0.6753031319804148
0.8464936924256011 0.9662708052618713 3.631450879580008 2.421016668784937 4.9292830683225946
3.4576218926360984 2.744755337487085 1.2726261608897431 2.610387689655251 2.397089953598068
0.34219602453410436 4.240750498210282 1.8614012022215203 1.5778736677678125 0.11245974726251828
0.8171730584327386 4.7310951110396875 4.959761114603321 4.087324127368246 4.051548877123584
0.8562731278966607 4.780090609796642 0.6010000197460474 2.606870228066605 2.4124741814524047
3.970910455703235 3.8549675445477973 1.1870163547889185 2.329571795680583 3.4747825715226055
2.131801999261377 2.3551343650609278 1.7229986539322812 2.0120327860522624 1.852873564386387
3.6604268158905517 4.204964822580804 1.5362299933100938 0.9512511265165213 2.5462952411280906
2.2597980751165996 3.504954222487648 1.2073253322217947 2.6241842072545825 1.865144656630235
2.571039339351462 0.7699099667338671 3.902033905712428 1.151445601272697 0.07002479982485099
2.490832416082458 3.8189577706580824 1.9175300947249685 0.7180310564052306 4.254331066276025
1.2456884499737353 4.764932921090036 3.6507286858394155 3.565764670844509 0.827585524709738
3.9322187893919764 3.306662214651062 0.8535101865225841 1.62842758239705 2.423937152037421
0.061036416217931655 4.428026839005264 4.924694235453817 4.1538698653003525 2.5933585197458573
1.7728288048946377 4.193715227276783 3.0222257590935477 3.4113952877932485 4.968219307224558
0.6172324079016772 4.077189095933039 0.6332161377984097 1.6045667387995077 1.2314077527459466
1.6499580005880965 1.5602112889205704 0.06144723569290633 2.7200795900168173 0.46012757716307695
1.9374203218079589 3.1157404138155136 2.346294939203408 1.7307299886898397 0.2337314586476663
1.947288090510415 3.703912675182957 0.7569830243418507 3.1640495074637243 1.0074088623384077
1.2129265492971903 1.085175135285283 0.6253921277101399 1.8972859600719272 2.160081262112282
3.9510571071765357 0.21978268782656463 2.151529095026808 3.9021296911270764 0.15496330723700713
3.564298503243392 1.9813789410451554 0.023623003508358442 4.097798095874438 3.25756945508618
1.8778363932033137 3.996385953852049 4.829586351641875 0.6467434592085769 2.7019136410504903
2.3620447689251103 1.9300808953423259 4.828671143091463 3.638848116417135 0.9855728038381373
1.687772003774874 1.939496715048063 3.9467385918044067 3.9285007765329305 4.943571888511979
0.9087502425824157 4.658006510253952 3.204772093440862 3.291565861878949 0.5720595193287459
3.660944651715528 1.5502403359443178 4.58029712796776 0.15298985464045178 1.3384148595350043
4.350216254912508 4.1876589059928655 3.901738253170638 2.054855010920855 2.0153384302901323
0.356999805204381 0.6138017286871739 0.0531179064431625 4.441390304319674 4.296647186349481
2.375206279772129 4.16307486201256 0.6685782588386446 1.6068887583515512 3.595850636072525
3.6765903095908534 0.4627617287699487 2.7493038587165786 1.170005315286291 3.8080394119210172
0.7347485996628406 2.1386253571259255 4.597344172336044 1.3147915945471693 1.1505256834497275
1.7457718795943744 0.4392843171127375 0.4355708584079854 0.4550818245038152 0.7336829073004503
0.8288307055641991 1.5231005429899929 3.218518503222638 0.30970058735048545 1.45167711110102
1.3618942551774038 3.159960561369769 1.7598695199181469 0.6648997466187323 4.515257497675511
4.202139167524273 0.1986794611500209 1.8849523753733748 0.04747482726227936 2.5664667756609703
0.3390674658130238 3.1548553826077432 4.197246917831265 1.8826256920510287 3.615871478011748
0.40584070081766455 2.9102572319979245 4.317063877602758 4.742044308280392 0.5758932420410073
3.5719552700895143 2.4988355429220777 2.023209721435115 2.1763188929554267 2.5326662137792355
3.565650370240459 4.008499151809258 3.183521156049572 2.0636279346493813 3.3291975863230805
0.9011503686392092 3.289533686056554 1.2288120486710814 1.1339465279902328 1.5143352492895472
4.634800194973808 0.0693863526638927 3.9859666651787364 4.095683779388681 2.629943360190527
0.5879928519647926 0.61919877019397 2.619345231848373 0.06609913111100874 3.2278866445155057
2.0883707268451293 2.6811094444940093 4.111230672406052 2.8804768647523034 0.001979893825007073
0.8638076769444242 2.11105816039478 2.680001408002518 2.55649151371271 0.8374448953115987
2.074856010278765 2.2315203269099877 1.3417667629240753 1.128884970683726 0.3798332425853901
0.6457324703719541 3.1282357202393496 4.591961070979057 3.2883336840274184 2.516690491011984
2.5997244511603004 3.7980888232881647 3.294519565169345 2.0737561731428955 1.3716558281379632
4.624534139871891 3.687364393305312 4.822850219749074 2.8035152141451936 3.2146585162155406
3.3966776995817005 0.3199347967160271 4.071461501914132 4.03675239869041 3.153411970652027
3.3918733503669243 2.0368360647276758 2.2459841993271894 2.7345083641630055 0.9265945494673844
2.06748622319221 4.114497350285331 3.1384572107067887 0.6202407606504645 3.6626027383758735
1.3085019328434722 2.8180869424653645 1.5538276259800032 0.012018209469413788 2.849612617363208
2.0283695127521746 3.2406861735784185 0.6837495409813354 3.785215034228468 2.948905273456174
4.953224598510244 3.997046321575461 3.221614693769634 0.03998040963538341 0.09650442166940498
2.611075126184177 4.568632805984131 4.51237764703628 4.013451369149562 1.041920339961394
2.098408485866741 4.709745309381791 1.9476642203777024 1.6144051786250357 3.827411630460022
3.9564265889051327 2.4251443161396047 4.606241316935716 2.7404295442461404 0.8210433779009474
2.815417361340259 0.45053466156714905 0.04815090788463816 4.928579461892601 1.1899374502078708
2.0714578486075714 3.14316277061069 4.883080785338979 1.6253439547599957 0.7625325963874158
2.4973741081178815 4.709426104082477 4.890843457081012 1.8198017122137367 2.5544295291396617
2.260853763149563 0.036488353274271024 0.011420819701257745 0.8549900577633074 3.6023603907750545
1.8720379670821825 4.243677985181058 4.109253090881321 2.6076832610597283 4.010472370838266
1.1157515386052186 4.466482371909745 3.7907367107258443 2.3421316447913467 0.6454761955170291
4.438198791514222 4.5183808491891 0.8706303618363215 3.691581912302156 3.117095583704899
2.567678131924771 1.4598549825279672 3.1690571042005105 3.365760756266805 3.7768608380007187
1.3562809909060436 3.547468019432732 4.966180625468793 4.511665122197439 2.233044734462574
1.463638319695827 2.0427942607650804 3.6066231319660624 3.159091696570476 3.836650188087713
3.6070340632449027 4.121569600149546 2.208601000684502 3.1931110369267484 1.6546453255255522
0.36463650592540753 1.2985077687622026 2.146968332538745 0.2969734095783194 3.9129119730206705
1.638937859754711 0.1758771392418318 0.02861474721241153 0.5241787644130202 2.2236246182251285
2.044890395237577 0.13912665744009844 1.9266241796227013 0.08398248156362198 2.9816845163554886
4.8636218910726985 1.8709812834448742 0.5562598754589687 2.7928100903428223 0.8095787271439608
0.134993159180411 2.7519312283100383 3.136653395146098 2.212836203438742 4.167176146695413
4.77358981880725 3.346799390176665 2.161805762967717 3.328976445464683 2.633565256316004
4.768484144552732 4.713379127487812 0.9600125496505751 3.505985213726419 3.365006049532693
4.434691320676304 0.8338835601549188 3.583957697257105 3.122363141678803 0.9693338601023621
4.365113453336828 0.9461311159519004 0.6411965901958977 3.65740134107277 0.04130993684195894
0.6287249725085664 3.473647149029242 3.4819813126370653 3.2312434800165906 1.33267518951252
1.9293229759484576 1.7049998181907122 2.8645182430673537 3.2294797023657935 4.845828097933336
3.568374802858087 3.3895310923945434 0.5858414949159851 2.7348367674994623 3.416926859895522
0.06510043568218327 1.776126887138159 3.207528116131489 1.79201724298178 4.739582631302982
3.97470173853338 4.770926462712002 2.659471922220184 3.3145786946473264 3.5547707902434293
2.8397262725753065 1.6798913998952765 2.6673885480692676 4.240650761464436 1.0839375406351377
2.6591908147218963 1.1342747134130589 2.9101500790351222 3.4138817373671255 4.074861414809237
1.0188324963375135 2.151801256176064 2.9742316396321815 3.7304131434628514 1.7808443782893675
1.0490502758579534 0.5835796889807637 2.9976544842399737 4.1532413731745335 2.335720564254484
0.3306143265341571 4.174427180061102 3.3639393702162645 2.907153824346968 2.225456968584425
1.6604583736738043 3.9324154773284308 3.8438106784989716 3.332386046598293 3.4547639673590114
0.13957695868677233 1.8768961639724475 3.94310527934141 1.0860728706745677 0.5259552028857328
4.7756187180533125 1.9050109664105452 3.4489610436941804 2.2151432255341827 0.8263717026756218
1.6966117228163164 1.0390980988685254 3.596731473680908 3.6500288602786517 1.4627288630229462
2.8084729678628975 3.6598645529482026 2.1456464793682994 0.5679936808939157 2.8271398707108015
4.211509189175493 2.6872773519446964 2.191125828528601 3.517803502513513 3.9081822718159143
1.2996460225621764 1.597542067286994 1.965630818813241 3.203498584809143 2.969947323126083
4.188415313211861 4.029045675158967 3.945399644579668 4.176508738678237 2.370151553796131
4.400949996069861 4.063988497457859 1.3935799066676298 2.0430631810878106 0.26488150118772424
3.2687080666072914 2.8775796121503716 1.2540432906542798 2.815766143679957 3.0854913245197895
3.8157870169143755 2.4787798961857472 0.5657505370565175 0.41470508514100224 2.064012719779585
4.437262368840998 0.47819879934242304 3.4539107390564476 0.8711418204582216 0.30338241445602765
2.831510408474396 4.139185812835896 2.737808100211491 4.6643325325844565 2.1291475044039423
2.2482766668668592 1.1113181780115804 1.1304400887776063 0.4063146279447344 2.6584771845568014
3.3628247703315073 2.6716483785943423 3.7463842743880518 1.9210645054256237 3.045800740492292
1.4125081079721602 4.333457053822452 0.7834977988537456 4.608028223240754 1.005626288114609
0.49797332250091975 1.8949776059061574 0.439294570130756 0.5731549954556453 2.8963802406550174
3.395416830396798 1.0200011821776416 3.491863331314155 0.4936851124859465 1.985609442575718
4.797930650937407 2.947280171621739 3.5273479252075477 1.6164990206108898 3.714280024544486
1.3487336785513282 3.3601901349439127 4.522117358138518 2.5237659285856724 4.923646193161083
4.590276181867678 1.8211900373570433 0.6511280625726806 3.6529270994463694 4.668070136628795
4.441002522009059 0.7900958495542976 4.045226544875641 2.823078289296599 3.1754067964347548
3.93016729223254 1.399578952575205 0.899667055433413 1.5629716431503327 3.142743954492719
1.2766894564925972 0.991158167875324 2.638624309006647 3.0189469168033547 4.4919910798655724
0.525112858979353 3.54192022330847 0.15577707859270928 4.1496502549306316 3.384319262140227
2.823950840885712 2.7403602421649316 2.0805040764779688 2.6016157943538403 3.894112341032996
1.9930948531485526 1.0985327112817433 2.5395762471432066 4.9391050105817484 1.9906720738494044
0.1616590760383968 4.4186919409307635 3.5015287281163108 4.760322414758316 0.2931701402872844
4.991815266295331 4.116625874915481 2.1412279805814842 4.0953019552871766 4.136921127174046
3.610853523260109 1.685897919041972 3.914896645947357 0.5676064329713526 4.620409074010173
1.1328257768173422 4.2359431640969785 0.6827208760957654 1.4574713929754357 3.7807685538810816
0.7070610107087061 1.3491907045512352 2.1505864452931247 0.5535055275193723 4.600329101277713
0.6731500458066025 0.01931897819976547 1.9659461936522034 1.7580854965813657 2.4625908463527466
0.9044018440640333 0.9846250691357533 2.1997723218957512 3.071812263591455 1.343761321203631
3.398352434264598 4.863385500024638 4.2869050915477915 1.0272864086674804 2.8641829481341285
1.4550708509758303 0.49383211595425747 2.5815107134688664 1.851908401592991 2.0807954886793993
2.618345824848971 3.075220793369331 2.775939522816685 2.1384529763284448 2.0554336889425535
4.600101904564315 0.9859648120507264 2.7505728379154935 1.908038094840963 2.6200645558458118
0.20142052096773722 0.28660344158840945 1.8687687834778606 1.6113729550607359 4.958061742239095
2.155792646368448 0.6121561939977593 0.5241583782975995 0.22405332583529391 2.887987443150611
1.7496902579118867 3.904047716174386 2.782234908882126 4.16074726853175 0.591316626628795
4.934649990882226 3.3882853619598814 3.773242628199187 0.20826492539128882 3.3175425682896758
4.392921195304947 0.27204655311678483 4.110303438770501 0.9542361540910005 2.4734800257550553
0.28805732916655336 4.857517914030946 2.653340691380347 4.9286561371935385 0.9986193515080388
3.763838300979161 0.6181425090643311 2.271091002322796 4.321076806193042 4.4637138660269144
2.8394886870351677 4.96174239184115 2.1723669754499615 2.0483022699920026 3.404503279321462
4.827085719355963 2.3467186853873088 1.074750516470115 3.324320978882818 2.7630773773714887
1.7443710450556833 0.5639268049606805 3.9098000492046436 0.6094581275222294 2.7005299648211127
1.5466409067907494 1.2825517291242767 4.397255848860297 1.6604977012226385 1.132044832015081
0.13115476644934565 4.102292409973406 4.440773080658429 0.6845317889815766 1.7681358100252313
4.773288319865233 3.5676323095398454 0.04717069811650376 2.766363049796441 1.7492074048899364
2.0551324652022656 1.6026231014438885 1.0888210304304013 4.65795751245755 2.3241995165183016
1.0559387553431943 1.047510794071237 0.30118893511253575 0.8225641925184157 1.5965288212822515
1.2062281270170072 3.2225813860214942 1.3665225876063296 1.7607182329195044 3.0120121705613627
0.7063646563953413 2.518183628370785 3.6920399214175066 2.614156697817921 3.6531463423894586
2.6101341873352157 4.675625635019392 1.480008814240699 4.376338422298293 3.9337417325354753
0.8606661142208472 3.4902309046255127 0.7971517348974771 2.3788938614037027 3.3941666017507393
0.653151131209791 1.849941883642316 4.315603156502453 1.31497819683932 1.1438990517213705
1.0366608377769293 4.637113973951571 4.1127420077449415 0.5846000991381911 3.868221252371317
0.7440413093837567 0.5803152458554867 3.447289083939778 1.2997737243402692 0.045941818244640276
4.320477471952775 4.165947079937688 2.6365573862480707 3.4784093397405313 4.165617168698115
0.8408034845153967 3.198057762363427 2.0307800540798775 0.9522132950856593 4.46949026509577
2.631557533632182 2.8617552047172223 0.47192517896654185 1.8485975307260745 2.4615497878686545
3.0534254499536995 3.1948085800626824 4.4319673869382745 2.3723684178214914 0.9263342486131332
0.13480329770557187 3.3887332293818884 2.1097396082231175 3.2775959367686403 1.4249042565247834
3.3697843372620233 3.3823382661728103 0.14114830195316508 2.4900567114821377 2.4033941685511944
4.435944407247348 3.5488716222922307 1.7389496764226864 4.001293545289059 2.35790670344851
2.1938589659162426 1.709251564538803 2.4973811695766552 2.0928094009367397 3.482541064972808
4.618271519758117 3.7566987922331876 2.452479469894625 4.683583377190491 1.7353779985624613
4.812047861557127 0.1302962931954621 3.891412583009421 2.8582953378880505 1.907065644688795
3.808372276247302 0.33088697475697815 1.9011893142675889 1.6229276588304238 0.1841563824722814
1.6964251187054102 0.251732313143479 0.8375185933332407 2.0476238807402645 3.589314422237693
2.016791392290567 3.165021304724838 4.140593079502237 3.4978500090603912 0.38912000099684985
4.642134158616466 1.3958964620297816 0.8488656603135991 0.07349823873263883 2.6651464698133838
4.526095237177433 1.4643320376347724 0.3368355429565467 4.877689288889601 2.2263310312099143
1.0864124921994267 0.0997990235381202 1.111058947854029 0.0073261426268139695 3.4336110371735344
3.28200737358519 3.4348031565630226 2.999500606380916 2.0409734489896048 1.8140505726869904
2.4912395943533854 1.2956917523296223 3.9358984707575244 0.211997514074031 0.6704684447603881
4.895303736835997 0.38677499907128543 3.0865677446924167 4.38040765417914 0.021509972748786632
2.650307769348567 1.087468538858087 1.844156622926324 1.9812005423998884 2.194067622103653
3.00761087181377 0.5012734506758004 2.9983623224033513 0.6612928323812189 0.5694207768201393
0.16763118784203945 0.7329342641628644 0.16781912042278413 2.7714322090824055 3.356959908226709
1.402776845555317 4.200668338000665 3.492553213084488 4.538796679853742 3.2903776991993974
0.2648665899113023 1.950783195299426 1.8494701157008038 0.6770865501990447 0.28494588513267693
3.715435110209328 3.647479332806651 0.1823957771178797 3.7619293936643223 3.6723936127937415
1.1201679414943984 0.36444199136008715 2.4862674383280723 0.2938668261479721 4.0878226393568085
0.9259687414511686 0.3775093251295569 0.5363173214567146 3.760464301432643 2.3086526644633576
2.4761805912423895 2.3338182922674937 2.5197263148646414 1.7474534611830161 2.397322780952795
0.696548152505479 4.35762692292297 4.279251134427647 3.8956855571069333 4.9194890219540675
1.3910106122089099 3.6306707817937416 0.2989393880903679 4.9189757458237775 3.34710809069593
3.8340957118404746 0.27844560490780323 1.024154165269258 3.78694494366517 2.410568517918324
0.6356573968313423 2.194100264576422 0.5740526828237302 3.4285448074680906 1.920936679225958
4.957763268382333 3.0639277518005676 0.5930793675272295 3.556254345143139 4.005388721214382
3.5437761862921664 2.2225428700484526 4.804260609688114 0.6741290157280533 1.8406291044816336
2.9501229166565808 3.356154162307066 2.640805857261426 3.644984456097557 0.0509643137195287
4.519203828699066 3.0402142963022216 1.1596443495804565 2.2656530785405438 4.5603066142249284
3.2919796126487118 3.4465379088827737 2.193504049411386 1.2408170769938809 3.853968070267671
0.09994022450664442 3.2465265083588535 4.151530706292315 0.3703385322355285 3.6844646309538573
4.1616878355848606 3.1484703854672595 0.8350092276709259 0.3332821453298024 3.607746229027862
4.280451902989382 3.8891397916452366 3.1799702895955297 1.3672772567954705 3.127244761413256
4.533629397018522 0.01775216093284626 3.35339621568635 4.52520499749819 3.5369239460287316
1.6907595687349701 1.970606389667457 1.5219200712815812 1.4334255407614482 0.06291753745957807
3.429908638225514 2.7892402724635046 4.381926214536918 1.0691765439601735 3.4439079277035645
1.5772020195152399 0.28247927446766075 1.4433589082253218 1.0265116875055424 1.1308504755549036
4.326122000568601 0.004705507713769763 4.540298985169486 1.4793255490040553 3.359825766632796
4.946668142441169 2.123451075232548 3.299755549832979 3.1100962486037336 4.203302046587
4.965573638000845 1.385081783614036 2.9060735984771915 2.5837631041654694 4.826182797067371
1.551150135794583 2.079599802655057 0.4693305092228023 3.2172559191806855 2.938745249106895
3.9944693388919124 4.36016463292791 4.563934829510762 2.592078505159767 3.5114152663834632
3.0408813542185524 3.929194385362844 1.9185494403712782 2.345435436444828 3.533556677777312
2.2638707272698637 0.7807010047315471 1.9016845131922104 3.70418967921558 3.2886760743022885
0.16332552293134905 1.0006309543955267 4.51340401524254 1.234878920707147 3.5429761830576414
2.4821517350957656 3.179911851191868 2.379706480556629 1.490487905129676 0.025149268215832188
0.8339880038186087 4.684731927234825 4.148896009443848 0.8915952091891866 4.5207164624628495
0.562001834475086 3.7585334804435213 2.5071815098053745 4.98110261530414 3.9525031755615547
1.2771258008489066 1.9555503213567187 1.9855573944144318 3.1370555478044944 3.5700719154443727
0.6043048193105127 4.070294095883548 1.3914221555722435 1.4539870978273144 0.5955416124534718
0.08513839169195458 1.0896975731511593 0.08653650149524017 1.1450888966742863 4.405359303915709
3.2337711906024644 4.628991791361095 4.469358556820592 4.0265672069606655 1.5575788439067724
2.261063164920607 3.8309435066313546 0.958576760013854 1.8299417272269525 2.010917511143848
0.7430629980398568 3.2615260308003 0.913014719832923 2.5913646564640507 4.1986807360708776
3.619335242092378 0.346565773356457 0.5510896765219936 1.0518686006004019 1.9208938116524632
3.5021690358727726 1.8578592047659903 1.6420911770243767 1.4003278098670218 4.518140731005998
2.8864043267754917 4.2670563939693364 1.366855001812336 0.463344894186955 4.016201822939504
0.3132864087087134 1.9909973342104503 4.069504945482106 2.590561404387265 3.328485321751557
3.8788390290607677 4.342720554065423 4.5217960514534274 1.2455987078815172 1.9432777162965253
0.999722060616936 1.2434666143679574 2.7633142497644956 2.788576299539697 1.665164617190205
1.9901286590719847 0.8928485334176711 2.9242079710154876 3.8254082863899095 2.5109271352657494
4.35347098130294 4.345515136855988 4.348087273736339 3.8810554973674294 0.9329823792206743
2.0691290040972925 2.5700538527247483 4.168932430877199 4.91921726178605 3.680886611459031
1.073575537418563 2.9635467827415614 1.6317763111424282 1.6813309741955447 1.8739786609679754
3.6246420388247924 2.731217551158858 1.6254142079667782 2.5420920586989917 1.0881816937872117
4.422306097648142 2.1583819707828638 2.9307176465641174 0.9751590641928626 1.9346693795669805
4.5944443747782 2.300162591621329 4.785312619005081 2.2206567617347703 4.942191280602214
3.1629037263117796 4.994299569731918 1.4495715845346009 3.6566530782295508 1.3547516290747907
3.0181452896839733 1.6954974764773234 4.139265851147574 2.247797672890069 3.42251841051319
2.4154903243556847 3.6353167209957964 1.6847060332214148 0.07919573088953635 3.7310341599602164
3.701173578633094 3.5972405332857207 2.9881518692268036 3.6297422326533866 1.6051261950059126
4.683078777055569 2.8548901358597636 1.18798788641914 2.9740806752169147 0.29856012458809367
0.1022766212345605 0.4078338807721871 1.4892644098620194 0.48249219934901943 1.0229829423608168
3.2374661828324545 3.0895689084432227 3.2288848031916406 3.8250118293877082 3.7745824533305568
3.0268135087314683 2.739592812597596 3.870157730824676 3.3884175554658498 3.731804045940366
2.1036948361057908 2.4327259798708942 4.758400197138604 0.8670755269131059 4.383902246522067
4.46343078951847 0.2672920344005225 4.757944179602836 1.7793302488715574 2.6434061856059428
4.011964338211693 3.3387733067758374 1.646832981538684 2.121814589122932 4.020552598742013
3.6975697598380997 0.5202310272828836 3.152724749183669 4.277970073343294 0.6627876590538162
2.727873086677633 3.580759701759359 4.420484243899734 4.589866779266248 0.4025519443654585
0.7878666134850509 0.13565605877367604 1.7934688521781195 3.1122227865215195 1.9766622371768339
3.2608917425888153 1.1700673676385303 3.5747244084878855 1.9668019109687185 0.7080376333192268
0.15914553838744572 2.3464731376881436 0.09505585872636724 0.3923413601376424 2.7357986942456214
2.952458397026507 0.6879040022708738 2.589756252497322 4.34036238633947 3.2676812667392108
3.704347484380101 2.662926378031548 3.7923595144281643 4.566584166339912 0.9172602240624761
2.4940076780492153 2.1417137228240195 0.674463265388674 0.5924359055251582 0.914595620622905
4.909379795968343 0.5871158697149997 2.530154971554877 3.278434886259087 4.5128146889273655
3.4148055435461644 0.02351452768189377 2.782060971089015 1.4262852208152403 3.5230611537814998
1.7760848087446568 4.110603841846395 0.944129438238614 2.5770037960901333 3.4706198946602314
1.5376040149709647 4.899139837717609 1.4740402474195564 4.89698588976925 0.973165513596117
3.405015980404762 2.4335151874254066 0.10629589058345879 2.166117137461842 1.6517555286439956
1.6657247595448987 1.434666185083644 1.265476883948945 4.213130576517912 2.6521730689006153
2.803724845555913 0.7548745821567454 3.673198830976079 1.2236937399786636 1.9110939875492206
0.9223371386891721 4.2872030644247765 1.7460436477253705 2.1133931506264547 1.9695932779344472
4.88155806113108 2.978941980979521 1.3666554337800896 2.8601226683265955 2.191734165293971
2.441745731051006 1.5792112623187804 2.3769463841239085 4.953599553873321 3.858007977503818
3.6111988614919506 2.681782533535544 4.429792647472915 0.7076393928449654 4.6512377858343985
2.2735539706347323 4.294691771557007 0.07599781059044797 0.8422392259425859 2.7102683057142145
1.7658128365058627 0.7101401215204511 0.47516069409635153 3.403754124685438 1.661755219242217
0.8378959351651316 0.4779181566340235 1.8965092140793594 3.6547931597402323 0.22875085496903036
3.4936571219206325 3.4160917184891177 1.7186612285947822 4.124186164096163 0.049388252014977985
0.8717331592365318 2.1561121115947173 1.721015517371824 4.786393311896522 0.7636288726262602
0.5247837657938287 1.4316356459398105 2.9815674854742484 4.178517045224245 1.8006172205811177
4.89037404209831 3.633646542631355 4.1322717935498305 1.0555980751364453 2.124492567658924
1.7731096846382033 4.987087206427233 4.62352482136213 1.4149735176637712 3.9322919914290146
2.984640325321152 3.314118064649358 2.623650960318055 1.6542464862444095 3.3096942376468124
0.1049281501816568 4.292573778887839 1.055646422185406 0.1657103191380943 0.39033728043134486
3.2785198143812053 3.2501070375784007 4.132643354710337 0.0965308367187695 4.768426658752924
1.4460162703675077 4.230344160531413 2.579015810380305 2.455302995622905 1.9482952422780664
0.3290177449244891 4.25790991848384 0.9903467549632072 3.7317709905941 4.419316215107921
0.9304362336974353 2.112512601503555 0.6290581160499265 2.1194291769642435 0.8640764217659569
0.9340286901262157 0.9965781781928329 3.7685474207388903 1.100211785412758 2.284231235854977
0.15425164766494137 2.78468980534303 1.081145618035963 3.7270171188534382 3.6465964850385015
4.462531878890028 1.9674160817379083 2.6864227580453526 3.938261084022223 3.337251327323225
2.1781823696122533 2.4076238668895913 2.374003966567837 1.5275870348100729 0.9081979915108779
3.2354650435009265 0.593617614428163 0.6168435412496054 4.507316437878067 0.08250973986339338
3.379826098983175 0.2979583196100283 3.8974698890529362 1.2194416914087887 0.8661355321779529
3.169135456442201 2.43217641052939 4.754054182341655 3.9837643633936892 0.9829889229424582
0.22294888382957012 2.1972049031514915 0.07375088703712118 1.4991148463873405 4.841251055673891
1.1354913687236667 0.540345281721924 1.9299036942392482 4.939026825222321 3.0856350612039307
3.7327069398088186 0.06690493871037761 1.1106461362021207 2.033015566963466 2.1328841540570194
4.341161774123131 3.880727331470208 3.2965350252637435 3.7622660879348055 3.2776429995120875
3.1601543380300368 0.2050772600296885 4.603280237052902 1.4023552285714769 3.8007613985325466
2.917282378472782 2.815276234725774 0.5412943425345684 1.0022619236607184 3.1045249406209923
1.6596544588688196 1.8489973922213876 0.2112188305985674 2.2498046367118785 4.960557774440336
0.5814845329972512 4.187952426098063 1.7633978084435165 2.4342497640067897 4.217629467481584
3.9836954130771236 3.8960584468293598 0.6732818942139579 4.863306004299857 2.325145494862473
3.5580271070645204 0.14506001098729626 3.5578123505345483 0.04662880567476324 3.231879226557854
4.232498015163125 2.9346025117693464 0.9374291908720667 1.133771929028523 4.757059883412783
2.2428343561333635 3.620389821026046 2.5656235079664884 1.5935983131315556 1.7975421330632257
0.5251036945652687 0.4744206477168489 0.7301154220379669 2.860776756986883 3.156159456940328
4.250820565402785 4.97649031589672 3.4938195144083743 1.7265260071292903 2.8781680874880813
4.919025930800515 3.1131100571436394 3.436694752201431 3.005392546822225 1.947318630181124
1.044618605617003 1.3548769072028577 3.443854819170484 0.8453054040165248 0.46878485317390695
3.0145785905263764 0.6492802943423642 4.337404265805034 4.332135745653674 3.4465968077332274
4.6133708252468715 1.5574731471275505 0.11623924608181013 3.99007037682475 3.3107685940018383
1.700521664042503 4.688557297816319 4.949519205913427 2.030554376287062 3.7747557200163055
3.1717810546823992 4.838044932370943 4.998230399680054 3.7456671297084676 1.9599490699730375
4.124766591099138 3.969190261677014 2.7752097357311936 2.8250710733598234 3.4615559670044194
4.261438872028304 0.5101906952071228 2.3457194434899287 2.392874543624578 3.6166310115606
0.47249392756783415 0.7619932601049312 0.24712872619428727 4.455072201828907 0.9580003221108019
0.9715931285674068 3.600830106779545 0.22683843901072864 0.8091774003667801 3.1297693273152842
2.114613622232171 3.2045597867740376 4.866836168096485 1.9323550226673958 0.21535134420269886
2.854760654747048 0.41563185288851834 3.101336362098272 0.4336620739507496 2.6706825312404665
3.9522968486315073 0.23377123274384515 3.222458287980939 1.7727268467399644 2.4416420897495064
1.4885015153453973 3.6093286154568527 4.863378223868326 4.442064181307239 4.1870355928442144
1.8251885987255678 1.0904067346337931 2.3854733900022 2.1010962431599722 4.797447836536023
0.557519677314825 3.9505270877645215 1.6589864932423 3.805144765258612 2.268433222890021
4.8943028679859 2.1201863339733285 3.070775177836624 4.570886738586547 1.2674783304761839
0.35007105888346823 4.972111195106335 3.2554614621935682 1.8046455126402594 1.0656004342615177
0.5832532117877498 1.9758358333124182 2.651192597272365 4.782684469802924 3.6295849103745494
1.4484253950473684 3.452461148096842 4.4172266822800585 0.5501421985657506 3.8297660274952423
4.816103739440347 0.08157813939144776 4.726896615103515 2.505672018840164 4.430486861706001
0.5716691694462933 0.807645464946975 2.2493165753101807 0.36199802106208323 4.142057306915455
2.6323740979762307 4.463207977393189 3.0025805258327716 0.6948462193112198 0.37770213714182266
0.7631162223897875 3.383784460869745 2.8353020215720597 4.496148305967157 3.108138732817335
1.7099567774307545 2.606760380172189 3.3086009633481432 3.8571443221591935 1.557380759673449
4.178634212718047 4.745130790063671 3.408649429354213 2.155455970266863 3.16918072783405
3.616159787433044 2.7884811042820883 4.422981061487567 4.247275617657418 0.10704362262255351
2.9644820987764584 0.5215660315250203 2.5458547858475895 3.7993692140595288 1.4582282205009323
4.504895650954842 4.152273289934846 2.0989839424297676 4.245560662398248 3.3879675323213942
0.02400662132926612 1.2917188275115188 4.155123748586316 1.55551577798319 2.006441131182137
2.263002825682145 1.1087027638865017 3.927100981035239 4.741576549510993 4.882158564537513
1.806214577121087 3.44209286309416 1.3174947857653196 4.285284633622842 3.230959293121784
4.14889409728803 0.7940715951643013 3.646627262777855 0.1425929627943806 2.704452953814765
0.025463883417308764 3.7061530611942537 1.5157718729627734 0.07986418257462824 1.841892591982528
0.21433623313840466 1.3095303277437003 1.3860051190289802 3.0538026896790686 2.3353656080819225
3.415769031730134 4.205970847537768 1.2368253464229646 4.764480372106366 2.731938043870575
1.5896486301496764 0.7022363001716092 2.462018389893277 1.5693422175080618 2.5072557643392828
0.9120496534577849 2.114441395998616 2.217457471781202 0.5634733250680074 2.21009999353432
0.6950044920348086 2.4505190372967602 0.1049206181698642 1.395306797912677 4.310262847068012
0.26565301014286724 3.2238724863707793 0.29513712897555333 3.850971108768884 3.022912567460727
1.5915463486520287 4.777335250736056 1.7827559084550626 3.664376549924327 3.6362901412128505
3.0206593322426976 4.045670022918645 1.9620620130223887 2.7561725388778795 4.43303385547945
1.8518206222085265 1.021796167716464 3.4930232008373996 2.0397454929995336 1.7369904365003974
4.182197176040177 2.0884340338219314 1.573688363798786 4.190108730868813 4.406133222763035
2.4519774743802714 3.272702205147196 0.29991621505676025 3.1607952154830428 4.818013821577398
2.235808820158254 3.3870377664481213 3.2246663082147875 3.5146262222067475 3.1529905890732817
2.5200558740183086 4.844226140330698 4.90366164153425 3.5790009608527518 4.645005128491772
3.298645981858855 1.3071005971643312 1.0924104212882346 4.065079088840677 0.2674946518427851
4.654234157914557 1.9074802498038257 2.193153094805393 0.44388488236046963 0.34036040888143104
0.6120605450078265 0.3738323733834492 3.910846422748533 1.3062715868440966 4.152738962315139
2.782901872524552 1.2762835975995528 2.744718542281921 0.9000700675551937 3.6707464142778097
4.80460552858574 0.10325666223492957 1.8459975376168092 1.9072009905204657 2.4216136887335207
3.5913674153894766 2.1931631876627717 4.5644804487821125 4.295597679962441 4.233490011248061
4.495231106596627 4.818365734318265 0.24192871627727652 1.5948620247420382 4.05546608352802
3.187507156896113 4.25810148534133 4.178669490069211 3.6000105354890084 1.366049546226139
3.8688470768016145 1.7243438847519492 0.8488628465263537 4.775695741853024 2.7785568697766716
1.900359697250738 1.9983399366373722 4.115627687912744 1.6916166538235418 2.577027624982957
0.06116199985542192 0.39416662601429064 3.311272729976217 0.7544977205046605 3.91504575189627
3.4530163769525846 4.91755965150732 4.296648557643727 4.123881338311246 0.6255742377261875
2.3561958289287883 4.012699772530105 1.83510253650873 3.7369484295485593 0.6494164608378733
3.355974602348697 3.391804961276584 2.3463658834691854 0.6724437248634757 4.2476290534697645
4.124227244106635 1.6687874237292677 1.3139108611632067 4.8968403348342076 1.9475712796437956
0.525846575932532 0.7662617573454333 0.90129603477828 4.654995002215318 1.5002168826613604
4.191940377916429 0.6924049202485971 2.596447290433313 3.37447657429214 2.6668811868501408
1.816504182034571 2.9926394955753084 0.412269895697458 1.5724116939898352 1.8340657903880897
4.798881590192516 4.290893299212398 1.5698255153032048 4.842813599917749 3.578417218518299
4.384732935340422 4.140269349091656 4.335520657927521 2.775849312283113 4.544383905380603
1.5772603929864226 2.3076808076881634 2.303436682600726 3.890923596822481 4.80734050775396
3.5139986321364605 4.010674502346795 2.2017219499897616 4.297870392469897 1.403866847848478
4.912600778775048 2.9028421368324575 4.525149124595412 0.6357645095678532 3.405513419226569
2.5351681575114426 1.8100470581973216 4.546844010160619 3.9551070968783755 4.764107915519818
3.8366968849121625 4.16279890345873 2.949355721140382 2.4601410818748235 0.9576380547019658
1.655675816083884 1.7141714523065987 4.670486697968381 0.2751131174937116 3.049739233916039
1.731190924774324 3.6120285201245137 3.482759581957921 0.9354696440141191 2.4552654478841216
0.4066849428550201 1.055123849040251 2.424261345787906 4.840742336596333 4.829124043674039
0.9688245245258265 3.2823725721680024 3.573994938013545 3.5588983717862184 3.1175505891682587
4.15928709543466 4.046126810549386 3.2596022277142813 2.4036599710456183 3.1230460116811964
3.8163827712903338 0.001258129720346779 0.40789991587026453 0.4655820605912242 4.868564252814978
1.8365068200282968 0.5114289464498906 4.781032632265129 1.456385976344627 2.5829448699558366
2.6521648818330137 0.19530862818383177 0.43274022782965715 1.3455968467326351 3.0700464329090913
0.6452702510519148 4.324356080448949 1.4219837718361128 2.7752118395012557 3.8052836559247827
3.872113906747166 2.4358701326283305 0.059927814966830306 3.8544895573306404 3.9143172376746986
1.0733405487948895 0.7290272923986618 4.156285535338108 2.503584463305587 4.092793838457579
4.007440945055648 2.698313537108997 0.5098388110446156 1.7359286234663707 0.12592407938054773
1.594686875678727 4.0443327957404005 1.2645241278169062 2.3704645665111617 0.7928079971788465
0.8542628457853779 3.3827963860343986 3.0265303060207045 2.9334759943876247 4.4455225021045495
1.9660294560669374 0.8273307054528661 4.090721001105435 3.4592383978794343 4.036804338695971
4.6459852306334435 2.952021587814137 2.7794780243444306 3.9060695054740076 3.5757035190167805
2.0443957118326845 2.418802416038499 2.163325200509947 3.055316637307989 1.7004900026442882
4.089188193887699 0.3118099052704043 3.925250198865131 3.6411202184290783 3.4549302691177792
3.535285149963899 0.9154630852215878 2.7879904565949603 1.7725658908306585 1.0477101634040242
3.567990409879678 1.45811851710612 1.6715892226079088 2.079274014717881 3.1691281154744817
1.3716698008936805 0.2804848350168959 4.250133290311211 4.974225316322847 0.6808714391177889
3.652554293396652 2.7280735560361706 0.49201714451716005 2.1884844017260385 4.467839679751046
1.3721288829098595 1.4756851919075464 2.3947987855047472 1.245027880483932 0.300885535612716
0.30608815735243156 4.401307610504822 1.3818733615808265 2.6719183582536092 1.6770841598825674
1.02758560799181 0.9032606338799865 3.338349160001673 1.3329413094175735 3.36438749842839
4.764873012745612 3.769794876259285 4.27780459422153 3.176562983239136 1.3723573567557024
2.3583167654231207 4.790720906105951 1.2937446785243196 0.8282769564432574 1.4245260552148276
0.47040910040408224 4.917057611266296 3.783633753373443 3.6200651565255697 1.4757437791653945
3.5321431338679554 4.388771813979105 0.12572076952183542 3.134405247791353 3.4930016684457748
3.3858706745912084 2.0149565259026674 2.17935534078636 0.2985844742878846 3.4267654038439166
1.9737603461391502 0.4962027173546929 1.117465860603516 2.2149100181393635 3.5477858503494293
4.977492449322392 2.0904978848882734 2.0426935677345908 0.863498618772432 1.8905133537023333
0.8832648174179908 0.1695641141213705 3.8128970284337624 3.522996781997043 3.2026837344743724
1.8149295179447444 1.8075991665770492 4.403334870217027 3.155722686675235 0.6395841454580137
0.11563548243734123 1.5092092103833261 4.906991673408366 1.9571580188874416 3.8854176338729047
4.314814739391174 0.4287392684426178 3.136770408389251 3.02010120291152 1.1878180666629345
0.9237794004692151 0.48614049911704926 2.5727894340882766 4.395999456368033 0.06178157124304029
1.9473399499277648 1.8998473864558862 3.1842490367228873 4.8462379531232465 4.023322655759109
1.715539751815644 2.0780914594721134 3.953269718771111 0.13064379776995483 0.8184872974355439
1.85522802718731 2.6677117984643957 1.3924824033065697 2.694692579567702 1.7974199956264947
3.5616842042516246 1.882170949840598 1.0585299293076245 4.789880400288118 4.426602255354274
0.1447209313747433 3.7968433210751424 4.3026467625934774 1.965585852294337 0.27273985544375323
0.7545948567227878 2.2780221053339855 3.377454798168942 0.8645185650671894 0.3837148241056787
0.6012369439789395 2.1570448300257565 3.5352300036193505 1.4558395859695095 0.10982548069773002
1.331801757965143 4.630387931523817 2.903233158805051 1.4644876480804836 0.350762165055451
2.5781519712163066 4.7911307564469645 1.01231934865285 1.7811209758900126 3.09807237063636
4.984581332631099 0.0835979328436609 3.4348435198386444 4.80206524427717 3.460736545520517
2.218894301079906 3.455488923693549 2.5387235676473257 0.05144231381704667 4.833563990703307
2.697262586199412 3.061142093084422 3.002883484188173 3.986684658936959 4.643966047384714
3.161455988563838 3.7299992337246755 3.031247879991217 4.043768826842377 0.9208914260504492
0.7279329741856161 3.6157500109762153 4.94528254615636 0.38750334949841425 1.3083230316682264
1.5169960913343505 0.9662590830666012 4.542974186371383 2.8623423065078053 3.8174491146673835
1.894732662310178 0.8290044679927938 4.242456747969635 2.0989623074073362 3.490718438360835
2.6328118557364983 3.3283458897456484 0.09796328972987045 3.2576545927716145 4.755465831347386
2.266055266442013 3.459882693080179 0.6169781576944228 4.731941413836135 2.7852802287460605
2.673977153304667 3.0230470999606447 4.173408940347673 2.2622564328604122 4.637871392299285
1.612583602102338 1.6468094200648165 0.120071887522199 3.0858746748616444 3.788577489593883
3.837048990373673 1.8940184565364049 1.755583238902091 1.9725395932525531 4.359773179629168
2.4906561646383847 2.987145434049644 0.06712612092159675 3.1441367903406703 0.8906958210282861
1.8509659700463077 2.031032323154054 4.201988993434592 4.800488079153306 4.778570061025911
3.1671273149456596 1.8424632388114275 1.4525116613350315 4.380586791704443 1.3041669822640123
2.34092377293105 2.6214996443836873 4.531819711294464 3.274737736806377 0.5206015948601511
4.793352826156457 3.527118400662207 3.663118754433867 3.0193031253535905 2.3448306397254375
0.8116390423745673 3.037959560427002 4.073817369035314 2.4481496373125795 2.9538161766507214
3.7217174774204684 2.1401950910895335 3.6111680610464543 0.7464958508163955 2.8469229784243115
3.5859031212351296 1.2315040655745175 3.84138235999653 1.5366437556769486 1.7623994399813825
2.164866674826528 1.7593749762740414 2.0817030552897524 3.8070121040342055 0.9506327536103848
1.3374304493306033 3.8006435853200915 1.4657589710051122 1.997475134289165 4.623306529180268
0.8302383047774525 2.510152273040453 2.129631205148379 1.6992069844659459 1.3905313517387734
2.6847856470882214 1.621069340228483 2.9648971990498607 4.89124875964074 2.7500162910338473
4.161923158778402 0.4685974931775688 0.16341628665814012 3.304365098838357 3.4736621900570093
0.40522714646931524 4.782856213584406 3.246200583379034 3.5214334690746507 1.4178402326661588
1.3376019113900601 1.2806344240674417 1.1266274403903047 1.7200144814694507 2.214947715709798
4.830256368605822 2.488122512613284 1.4691710297140497 4.785164092852386 0.06398960371265916
3.8824018042954584 4.2619214010624855 1.370203430198369 2.55119541839562 4.689545266596285
0.14792851377038174 4.981618514187776 3.033778133323657 0.08813632196790377 2.1619380622199125
2.480185575687463 2.0585998891810893 4.420820661184705 2.1814544621086163 3.6398937395066873
2.390984887848544 1.795175086185166 3.935458555513063 0.011081016211834105 2.6258532788919693
0.2721236950712763 0.1969635830181793 4.024990980029734 1.6810329976599663 1.354570633130348
3.4048169606743617 2.0532000785627744 0.5491074944469487 1.9387219811730005 0.7189596993572794
0.7626718300718016 2.585040436024726 3.992415523984123 4.144630760207507 0.6384452830065651
3.9009879863940498 2.4564664344454457 0.010637952709734444 4.220679755534259 3.8555529921981764
4.791323691175012 2.572436883864149 3.6103215795732337 3.296708283503448 4.468726453305451
4.397197984829775 2.1061976361732393 4.012388955743576 3.3248166663947343 3.6133044818029143
1.7528494382342634 4.734741533642232 3.2652304127567318 2.3292535293930694 1.3318969473882274
0.3589693066543781 4.2494788016414855 1.4196632676514098 2.505312580367383 1.0296238845144545
2.2298691431840014 3.0200402997637346 3.980708803810899 3.009066631190654 4.765169694792311
4.783007074620924 3.056826875442728 4.950104528756129 2.7754180360699285 2.0676076608008405
3.133085992994083 2.06643602659483 2.9742472660093533 2.8395561524043123 3.4217317237424134
4.83618570968998 0.15974147082358614 3.9818032818871147 2.7885954343658215 3.2800068723598965
2.3705297090343347 1.0345641416798985 3.5075927538641176 1.8828358039217248 1.5739043321753359
3.744725928131575 1.698088942412066 3.7766605009380894 2.2850659746086874 2.285168420597099
1.5028681507348485 0.3184091921118076 3.381403960701057 1.3989491092549895 1.9414697295181766
0.16713605064759884 2.7422666048823476 4.585497575167093 0.3136481821732695 0.23308917166576848
4.6916934625397335 0.771068942072401 4.083358615160414 0.1372951477339862 1.5692730042123721
0.5505941866402947 4.435495684890169 1.359662886725802 2.188176981277758 0.693567718335128
4.09527174070276 2.2039414979254275 3.988603271348627 4.002886316075992 2.587317416118289
4.994892533759769 2.2044152005569195 2.7939762676464186 2.174092462410787 1.98367185505482
1.0809755550326678 1.8530694966558965 0.30103312375119373 3.512815694454026 3.2324427302875725
2.173514092571182 2.6964004504598735 3.60579271431976 4.577059338197485 3.932799872479996
2.5094512160424047 1.1053373881905293 2.7163091574455294 4.846707926550546 1.1727113444128783
0.6223933675119303 2.8478446504574215 0.3832220554397825 0.5766074166274837 0.8212322062267119
3.986259161345134 0.397771408170548 3.3669450957289877 4.4440771299323405 2.2504783849471357
0.10557934875723318 1.2555541017402316 1.176690026913107 4.15658133811373 3.7086799247149553
0.4066683013583766 2.2199012640126266 2.612176039028758 1.1820979551932016 3.550547175792742
3.126521644658574 1.823342013054342 2.668520642297216 0.037920269472652146 1.5473756833083656
3.758621205316652 1.013380277056339 0.4521120182571692 3.8777862270705654 1.9504218075081363
0.32992848561074983 4.690518263971589 4.091492199759311 0.18782318154596023 0.48712410694242925
3.335054041229059 2.795575109347354 3.705097616343829 0.5229347424303687 3.8026056435098883
2.171518292230102 1.5210762462293177 1.2463461507067612 0.39660596928947134 0.3778510284500447
4.500998029696584 3.7409210876768615 2.0676354383247055 2.4239422979364447 0.06533457664399611
2.9478127560881626 0.19284430796237484 3.6493373486449783 4.131471992904608 0.09909972646881537
3.1783405952653805 4.042067784354914 3.9649433875290168 3.998665129037782 1.9449441502237519
1.5519123150338765 3.788554367093055 2.123981720918783 2.9161113761617923 1.0244799862268306
4.950053637151396 3.4496959534580043 0.20849487871747951 3.8709532577473453 2.385886780344233
0.8343663460065276 1.8235241678162117 1.8445564800971432 0.6402717782571204 3.4046726915714682
1.9696285286026156 3.8526012688918794 0.9427837135641709 0.8665968102993132 3.540279974403152
0.468639281700145 1.4034524189223296 2.7788679537476795 2.2935353907176284 2.3004007369350217
1.1179346953035185 1.3174471446810259 0.8917039084341638 0.6542711454098094 0.24338755708030457
0.2926394192084897 4.539856330862623 0.22599436245566706 4.845579951524291 1.2253679022354391
0.5195264612180961 1.3545828981981056 4.137082863690407 0.19937198643856568 1.7263173988415743
3.5179015611870827 4.938348583092199 3.361575244024838 3.5450356032451147 3.6411604076795463
1.2452199947658853 1.8614384554499208 1.3660227429499827 1.929957147844899 3.1696723841456738
1.5095407217725283 1.0007405263454667 3.5222903302989743 0.7799288977822533 0.9786345787225142
3.390130934096838 0.051286558488683465 3.7501652977952222 0.2686566677354424 4.987517966573426
0.3768967878159829 2.315660477253667 4.680663715380522 0.19936326861374976 4.450853596893213
1.8497642329269404 4.563196551728902 0.012484701639284834 1.724201401140966 4.676021746926927
2.9170695903073613 4.7479145479044025 4.695404373171269 3.9444575049233195 4.915307135233294
0.39710175222880284 3.1885764723561087 2.886069003079315 3.168021897140945 2.1953150138346516
3.8969393288892036 1.9416337233024727 0.4976518537978081 2.207426081661673 1.282852040138624
2.676270230471375 1.744186593481002 2.7739744662129056 3.2021955534121087 0.39114874676724365
1.7292330792316375 3.5840532037186277 1.8542645379727973 0.01868915072126831 3.766006021120529
2.251218863215865 4.883738170419239 2.7696194892145827 1.4093269267791912 2.105806664877194
4.409039995484859 4.812109005685769 4.426057273377396 4.823020807078259 4.3785908644764415
4.755439909590164 0.7167353921222558 2.1551736437507385 3.125094845731 0.7967585323637594
4.569854768004536 3.868368405393481 1.7050982575648304 2.6955941815426914 0.7334614225552311
3.8899748722518552 1.2946448869629623 0.8340954094310937 4.195926660509509 3.765816778077955
2.1094831390149977 1.9545720775732374 0.8285207490501362 0.06364823159196065 1.2416900754061193
3.0964121507392957 1.9768960643328726 1.0827063907968588 2.2733987121935355 2.1265165823481595
4.796191321560944 3.554831384387164 1.0757906272190625 3.888064818103123 3.9938519277244593
1.2487261649084798 1.7951781070603867 0.42791552599715454 2.8656191609395396 4.076765819538408
4.327833632627794 1.209518249741981 4.169416016784677 0.13873307784593947 2.881515739068302
2.73387482648066 3.0466554084740793 3.7495028959556027 1.757570041929113 0.6951720459472349
3.190025257488926 1.5206677652673655 4.000206001610517 4.473535395037654 4.941854270064096
4.436138151853946 2.3911257975721636 1.5377166423590078 1.2136006710594083 0.07339446177613951
0.6844945997180713 0.8855609884560689 1.3608502886565503 1.344835270438924 3.3687426699433933
0.9159247869614068 4.879026784289604 0.24701360001912087 3.2286070346161 4.639487911877179
4.153466804498377 2.408292438298767 4.884218271398993 3.782880521055728 0.3069919035726676
4.010146600941699 2.768688129998544 4.813722035352685 4.241019061140055 2.4533648933797085
2.504327367487742 1.9538329907077712 3.169672566414813 2.22965785285722 4.89668571300567
3.9716948762470876 3.708264970119586 2.972052132643332 0.6782405606704495 1.3929928529021984
1.3471956542896617 3.5385670595220207 2.3175337337759006 0.35882236361347297 1.2440346388894818
4.398735786742936 2.6959764578912164 0.8991717604273985 0.004459020661963797 0.19039645513936165
1.225990838287222 1.5592803922735436 2.463583931558382 4.706929170510917 1.4133314294819455
3.2259830165434433 0.20491510669812585 3.8855266228336887 3.9080856546852676 1.7661263458884795
0.8715127622902363 0.41426846794315075 4.048048973550066 2.3483183482793377 1.5738537320872004
4.477351470595951 3.6051639411272913 3.175880758827293 2.564936597504503 4.374842351818185
4.925700132062532 0.06492924350661233 1.6784747337446166 4.11780529095935 1.852080127010537
2.6301111284807988 3.0214790526012854 4.580403042344762 0.12693828776047023 3.851832118884343
3.475040767040301 0.09437923227608891 3.3690311106130437 3.698060366622115 1.155975043476492
1.8626121689876718 2.4781081403417238 2.2217716746488616 4.430019258663934 3.896081666572088
0.2929391452076452 4.07214898263316 2.549462125227734 2.9741907428584016 4.5473980676916055
1.0143507705712422 0.9065544603310738 0.5861885629077379 0.5885441858096796 0.7349927625874852
4.607112783145252 0.36337070980674624 0.3415605916013914 4.655940724486584 1.0512248316581208
0.25499858558691413 4.4893975727154976 3.09797379660167 1.6561323437850206 0.3077870480688044
0.5766588600046069 4.690867983025669 2.2932490477485135 1.281227609230905 2.846416512110528
1.301478534681984 4.038135366732275 3.1096766341745843 2.9575836803102824 0.00287901717342387
1.0135396810236492 4.303920437028323 4.022607445038876 4.899492740129985 3.5631810939933044
1.2874700372689096 4.754807612090871 2.157083425250479 0.717943286847561 0.4075818640373752
2.797822102560179 1.4535626124053196 3.139709982685069 0.5643938769564477 4.3260562270514695
2.6617647429607953 3.7619471333859424 1.8417481149579662 3.6731568537297736 4.765923633092305
3.2955741511762167 2.0597705159240913 2.6991580896656813 4.526587132026175 0.43754286123023955
4.352127737798984 1.4493489925309029 1.2654666075680758 3.360612016764557 3.208706171218526
1.3184360952424297 0.6344922342182507 0.05306539154213197 0.6940647661980903 0.575609458853803
3.1783124514321104 4.625162533583337 1.2932609086203444 3.893283840394276 3.4302820756290724
1.752625725772599 2.697278197412949 1.0709252600124208 2.6230267685961364 1.3281926691681134
1.8469254706175242 2.0128053209538512 2.599779925870366 0.90918460197141 2.894170063625707
1.1077845275564675 3.666445094419444 3.8847444286375232 4.091528145421863 3.9298961607110225
1.9879994959089924 4.793290796247134 4.301813182817017 1.9786718034077488 2.6506534910273176
2.3513912979204354 0.8850866530721885 1.985026124418265 3.477155142554695 0.6021644169298901
4.1855197956547086 3.5278432977587237 4.842365195176106 3.74916305507275 3.183749989297656
0.06261530240025404 0.907803845023259 1.0211490729448118 1.6339917645745334 4.876880893192675
2.0770600674746404 1.9160975464127046 0.9700312442687459 1.300935971823487 4.431249336763186
1.7362388554025325 1.919963955385866 1.2813834077072976 4.129620019936343 4.3969970131770335
3.158980415933251 3.9681823633853464 0.053907015649227175 3.642042761015334 3.902679713973165
3.3322555692789804 1.8433937702701404 4.4761483582351245 2.7590829424343295 4.5253119974333496
1.2140259207119708 4.846680170314043 2.6807395259401625 2.1189103858514957 4.001400842351351
0.3350496492764965 3.3486867990094957 4.9485761331463936 0.5248206923418247 0.8498263720983706
4.7267146624482335 0.7784792670053231 4.1578139497659565 4.2108498473455045 3.379125628958644
1.872699997898013 1.1949725090742547 3.775986844823746 3.4120394378642294 3.878504450931395
0.4345137001308025 4.407828547985945 2.70226642915509 2.7217401759539954 2.942922873862578
1.9880659661467226 2.025199331151066 2.9721597669158237 0.1680809570795322 2.2821556542662447
4.890616840622355 3.6123580104143334 1.2017136290748676 1.4899396349251026 0.9245305569408552
0.31619232368020167 4.653954691380026 2.954997619241408 4.943771966173573 3.464976118076991
4.4120347287720065 4.711465112971346 1.1365307651472345 4.724727514765916 4.1498570399271735
2.0898673853249017 0.322601904867052 4.248891949742012 3.612674106657286 0.5851208906586158
0.012117757066126833 4.500022237093825 2.3858910738338364 0.636456703880835 2.362516998905358
4.372975562980514 2.48669458921819 3.9874445002118204 3.9577333650275297 2.726796005272447
3.11750303832404 2.750292839388017 2.65217490224832 2.434025349431698 1.7770179554265675
3.0183658490579846 0.8493800515517991 3.945402767824895 1.0370719092740606 0.5676515318604847
1.4671850526996932 2.4101826217226847 0.48239071776494447 4.043189655674978 4.44929657976997
0.372695860137211 0.9394662007386589 4.931029794506888 0.034187862071903274 2.951543681098154
0.7770894946521484 0.7147035606349156 2.1376339014498837 0.06389781099182146 0.6779092926555663
3.6131645079513226 4.38898013324879 3.2342260819886928 4.590154032692797 3.4225377840447075
2.5974632575592462 0.21627825698716852 0.36579223896584245 1.9982008082190328 0.07879983055442408
1.1053637045983762 0.21231999821510028 3.8526732518094993 0.1667628448794245 3.5511273942496926
1.0755676788544943 4.558424641631833 0.9775923256767716 1.4941088007532444 0.3751635319052071
1.1984920340014145 4.520054529683017 0.556165181354143 2.8077863941313175 4.109110406561448
2.0437733282319845 2.501884109750403 3.1384732145129695 3.0134624509772068 4.9387118419242935
3.0335473736604324 2.6943970552822454 3.04523964299003 1.115885334787985 2.754046847458131
1.6185193935257292 2.248742325140631 3.7288266103710876 3.3567720306017534 1.9398623465985882
0.4996432897283104 1.9299183370359962 1.4331962886924354 2.8070574702780156 4.5822586932693365
2.405012173492393 3.618536336642602 3.9970132622507615 0.9353775941503822 3.634346677138302
2.0212493229482713 3.8561275158625197 3.896426027844086 0.5365603901325544 0.3017925999412968
0.7827632074369406 0.24428723647843043 0.5827577633261483 3.543940754803445 0.9249869667290317
2.4703712633479737 1.4686626539808816 2.0794141975062246 3.2814460124066813 2.703786724839871
1.0446522399491076 4.309790912841896 4.584558068307834 3.617138129176766 3.430534765804833
0.0207705560176763 0.4526281103011115 3.2675911918437843 4.558414802307378 3.9026513489335475
0.8990667575098055 3.6888891626084046 2.629199491405136 3.041139525489067 3.5398567623796695
0.9530912719597201 3.075722561477831 3.6086690729388704 1.8792024811869807 4.362581353473585
3.7205486942445725 1.1996280786975615 4.148375283451966 1.0066276200117419 2.479598967171829
2.488503174645394 0.5731491866128047 3.971851903140688 4.685487154523376 2.4595257841516807
3.777607610706643 3.0221391468312793 3.2012051384853035 4.728202828787614 0.8796972770794342
1.4566368580782474 1.3933433282433116 3.23302117712213 4.051499973044916 4.587337432807717
0.5145759181249637 2.7023191035542733 1.2612008449394159 2.2117583775783505 2.03341783862654
3.603983191609752 2.6469216228965693 0.4681050771366424 4.188094719055163 2.2438342562547327
4.100766272597149 0.7572264695857855 1.3419913321033365 0.7898569584490123 2.534831215622572
0.3305216284717477 3.2951446972818825 0.053302293044208415 3.4429915169621337 3.130368345711027
1.265772802311138 4.315270485413763 3.1579722252428772 4.299596245727542 1.975763124714669
2.6516618039745814 3.3743965872341644 0.12244471934914902 4.773560464914363 2.681982199790858
1.3612275859255518 1.5717396748717816 1.9518567521148515 2.0570060471464524 4.4871267551197285
1.354194840314088 4.758758643964541 0.9060731909084374 4.684007069115152 2.6553659232122264
2.7007653478320046 3.6270937341537843 3.9662611864310025 0.2816757903836081 3.9333077799956255
3.5745249792455294 4.576875685852519 0.6781858436295712 1.353183110982938 3.560096522771528
4.76041604407759 0.47258737240674253 1.1309667486870212 4.729213883944401 2.2647702710312116
2.157552133296047 4.3876892996870005 2.851968997462602 2.626915750820595 1.3512350911822968
4.138720361374768 0.26384135298021916 3.4677744946825886 2.735218769921982 2.6009558629950327
2.9281444906291894 1.8003518247590433 2.2241531600987896 0.4510450316459813 2.2549442834325713
4.723808067409872 2.82177247009232 1.9090744633944878 2.102950268047801 0.6423949808827861
0.6709465882871951 3.3982440815226145 1.4805600243711647 2.7920697747442933 2.2860608115308683
2.504011413242808 0.33370424639167284 2.880395357224173 1.709824377505813 3.2822334812324936
0.8317766522066383 1.2688484249115612 2.1729573111616585 1.7753813429404275 1.2717845636619929
2.627784661454984 2.460155303991333 3.041318127117818 3.0886473592189 0.560003365623527
3.226406741836567 2.359941843176536 4.316737531135312 0.4647118335658401 1.1037521267893275
1.275772737891994 0.999047881876608 0.4501443206611161 0.4215167062197567 1.247427119274784
2.386818609652627 1.8979233899961296 3.6716256189886476 1.3256758204578023 1.7778691840110699
4.110190749468091 4.592978699074376 4.798986150789913 1.6244986905269414 4.040162809630347
1.1114595472233963 3.9025373360441398 2.1220165054247837 1.0927776249941257 1.5434567516586677
1.8915502900348935 3.2229299891598115 2.8842628099375665 2.171031346681186 3.684511386320006
3.6287812284493626 1.2448536042931595 3.9586312786724394 2.1426599533384416 4.8476125467373485
4.6702269977884265 1.2547219796769578 4.195225065743609 2.1118742796450207 2.6063737861271505
4.03379923771867 3.9268751727762763 4.447139751892838 3.7723896847216998 3.0940071401299507
2.648502713373862 2.685857190444478 0.7682755154970405 1.6949848568922787 4.326049308462656
2.3102421758622165 4.713249547606596 3.605264464129366 3.8240627701217362 1.4966950832015629
3.8601603954809076 1.7423233178949409 1.7211334953969808 3.4000056295066576 0.9829330561729166
2.569892259660981 0.8783713623319644 2.630129634687572 1.1137423133834763 2.6751918394842877
3.1432227388271494 0.0653493666937921 3.9158402910222847 4.668730336765907 2.991715630043175
0.8332662539106866 1.5610081864730256 4.516807680344398 0.07930397244093002 1.0806168123638205
3.3208865177036566 4.080821169986052 4.478880259261295 4.483947499234397 3.0376804841627845
1.5110569652888284 3.941904345234806 3.339436153544766 3.369952870978204 0.6331048522257332
4.455313259666381 2.689700603678427 0.7082671235628152 2.2258882625184135 2.7194059342121624
2.2582997752331613 3.809121746004383 0.6436251699015066 1.2218355844882922 3.0361244291631646
0.7737530337226817 3.205145959828266 1.8755679495806155 3.3057685494389686 2.3531128046520955
3.682088484960539 1.7384808661482283 1.0022615375259536 4.447953363736167 3.403048686387397
4.802735008618843 0.03614206447593582 2.313541106860389 0.13374760740096414 4.677728412671097
0.7330691933669775 2.865617822950306 2.8135302175768473 2.0969901939165814 2.9522684392333733
0.5519465595443229 4.14988734594163 0.7426723316285178 4.406891207232196 0.8992557576706861
0.04937923541527056 4.061980076735122 2.540034759000067 1.8542878167161925 4.861028128848969
0.9347409900963716 0.9150034670270951 3.3555352490979082 3.914613090530035 0.22703637516415853
4.354949321637341 0.5153783268969214 3.8611807221709196 0.7466403916277004 2.94805008765078
4.860843958198225 3.704986309874408 1.8941719373583321 4.664863119184207 1.6357108888555527
3.1337522844709786 3.2693101252752887 0.009223322560825142 4.429970254987102 0.7401281026158041
0.23544444699925005 4.265423963985931 4.58400584996075 1.6631274377570104 2.3250315574628893
3.315345009306239 2.7862285745936415 4.075260144706072 2.0738825902264866 2.098565997604889
0.896423685088783 1.7121514845510688 1.751112747299128 4.679263126725031 0.3307093495936181
1.5837042842319011 3.899258717979781 2.708393176393397 2.228172323766644 2.365835163168285
1.6425166238003492 4.053151883953458 3.058652268477867 4.566147339324117 4.89942780218006
4.3070238968443695 0.5756061893184072 3.2405504782146584 1.9666225759028244 2.3597330151064493
0.15505496168031763 2.441576888436416 2.1742434018349597 4.134285392058219 0.7863870976963866
2.46978200233872 4.509727586842188 2.1704526754588667 3.649727362843167 0.16603138585472355
2.2694989142785307 3.548322712674221 4.820834179478691 2.1480588006438306 3.281293304696398
1.8671246071774212 2.702266481541674 4.896142982570827 0.9222931438108517 0.16631401080118235
0.15456164416382479 4.87485546143968 2.98311568067486 1.0321240289969653 3.02548164095461
4.907616137938617 2.2163455925618636 1.184765696011583 0.7750539802898654 0.5093428103957798
1.9824876828444349 3.647439113908357 2.005627977257889 0.5510478658584012 3.6875491579435495
4.003708240958574 0.8643196934436137 1.92083963060527 0.6630532282341173 0.2696616478305802
4.029763406954747 0.7526834057952136 3.9708975597273106 1.1709984785533352 4.554921032159105
2.6554025032375583 4.864709862929048 4.107474462796816 0.7926560902558721 0.015471267643908382
0.5321496917677893 3.117799172758367 1.6992267706068493 4.211519755058561 1.416838632289097
2.8845526756515287 0.10330936501232457 2.063195102676157 2.136793253057153 2.4441353204680856
3.661132874035359 0.3475784297693141 4.8606282237604574 3.1854408165481294 3.271042183001276
3.1262007132935854 2.069110230188416 0.9839817996840505 4.768741852852612 3.1995759395432053
3.488368946798685 4.137203846683296 0.260271968906749 1.4843705256466078 4.786528187579008
0.30339222776998576 2.276409243505648 4.648325638133464 2.5755825891560207 0.301077159374884
3.3108604558433017 4.505786584807401 3.3668511909926053 2.3211304773316406 4.9841350011928185
0.9585127563624252 1.8577831021060969 0.4516644586657731 2.992403748336355 2.6929970198150466
3.1759067365182476 1.5632935592354484 0.1634366362091888 1.6525876338406942 4.3942732687813
2.5648995238464356 2.489607322188212 1.141580144777807 3.861076642846461 0.07015748918283937
1.5958916259197435 2.5551083228565363 3.2045289709952156 0.914115002249648 2.1369368770356356
1.350097187840797 2.413880877267822 1.579689380574174 0.5236714786684715 0.06046834683860525
0.06783711523381364 1.1582500134502804 1.4596162405130242 0.6984409980080036 1.4330532686044744
3.1989121703901624 4.863537937220642 2.860215046787307 2.840757103756359 2.3193480602743595
0.3037219447217343 4.6017899895158925 3.194338996408978 0.8603344437347688 1.0394160364036047
2.989875389607116 4.7283021395165274 1.3921844525882243 1.8063417081169064 2.838808973219586
3.855321066890048 0.6862186835605916 2.055238244190222 4.1676342720260795 2.709465851965447
0.7451862855041508 1.43239043390735 0.4919630712929257 1.262709191181216 2.2872078799190296
2.7914470750499563 4.708350562345785 0.5489972016072181 0.8349041869158813 3.2610374705927923
0.565973734009953 1.5406767874640381 2.0400584413114635 4.356471168744792 1.1153310241599002
0.6095379159486636 0.9103216680434628 3.817335896891285 3.2901181059915494 2.842111943802946
2.836402213439965 2.1355050387512327 3.576847178648486 1.966494506450089 0.8185355787272297
1.4483036430352696 1.6888657472601454 3.684965329457623 1.9166717639030324 2.774627312332638
1.4151229579323754 4.692336762592172 4.237470717128662 3.555214952078898 4.0980897024172
4.012090755557771 0.9357680917961864 0.8553771323649445 3.2886384943575724 3.458891988288018
1.98220385533094 2.068837782209727 4.809470483161031 4.234017168987544 1.4604892692795484
0.18660699464137176 4.688779553828339 1.3132474257794224 3.010376201374844 4.259085679258854
3.316767711532398 1.9225774003020462 0.7418415157973662 0.22858232651261523 3.7933320453065154
2.85546758075105 3.708189158958914 0.9474855347450756 2.3066747746140797 3.196521370420269
1.156149222914768 0.8871859944795507 3.0807749613832707 3.948500991500945 4.085486741909953
0.11263966326610864 1.0736082331980557 4.008449505677194 2.7750182477219827 4.222062755006441
3.635638804010521 0.9888211935003255 1.432247897469185 4.768228314553919 2.7393655728071176
2.6749686952929403 1.348338736324814 4.590012837033088 0.01868722139470036 4.335083827928427
3.0330874630334574 2.1833052897211545 2.9508327695324166 4.06242945625249 4.834803490221169
0.6667350071990907 1.6422057095068 1.7779434404683019 2.6405398532360476 3.626125506799065
2.32958449134858 1.1307380844736026 4.573215277990319 1.2040259453810298 1.7152639904835594
4.459440504040793 2.456064871399795 0.3225765187019236 4.391830349028359 0.9133895514030183
2.24129814575896 0.7015493538867407 3.1619447728219807 0.1983074970731552 4.110635749237162
4.0709021510233745 0.06382914886319924 0.5574762641661796 1.1645260624260412 2.0241531479942285
1.0513118453407215 3.541332478797096 4.198517767559315 4.234334022246885 4.864298544584765
1.9447603517134864 1.011685747596927 3.1874463785359324 0.5791176208945759 4.687733084902377
0.9835236408273385 0.05316751821509591 0.295643444988834 1.1198816241538552 1.5305392542415892
1.2015542467287905 4.722432699700266 3.098816056554048 2.6654745891287774 0.781438035480298
4.908453690424838 1.6686556401583896 4.663613649143723 0.3026762463885063 4.370522867620853
2.809682688896432 2.2537914689839553 2.624287274831582 1.1635597533455404 4.945814812855263
2.552529243947405 3.789264545653936 1.0141410321313686 0.7737552698698419 3.3031398231240265
3.8528519130778562 4.52743111360166 2.414552592987327 1.9597580587925982 0.41094003174678206
4.436132920813888 2.221420245748144 2.7452146160365887 0.7654386257344192 4.998995167167758
4.60623858037485 1.8494849349903142 4.596674930441108 2.5418468194405808 3.3225972960308736
3.8681632770594074 0.7257310849320497 3.9956596679546386 1.4496131836261954 3.826315070051228
0.9248956665538499 4.293533136785718 2.732836584070429 4.5237221571946336 0.9288877616786889
3.708060097949692 4.288324259293519 0.621725946040978 0.11905239142671553 2.8695335333407352
3.823176221809663 3.550272071243545 2.8082497776324806 2.990886687015843 4.613515542337348
4.119546787011828 3.076310825707232 4.064609667824765 1.1613029798813357 3.535489360937019
1.148882070431041 0.6199435413777676 1.9181448208472929 1.092854645364965 1.3472794860014914
2.353377175383451 0.5592513563490886 1.2407490935763525 0.9403673099231591 0.028109564797694775
0.04745197221990738 2.6798541747358833 1.9987056178949447 1.3291471925743492 0.17401148046305326
1.1618463235818721 3.295378246712498 2.879090791506205 1.1003708260611917 4.551388886581701
0.4624782219507029 1.5609089060751087 2.575511219602312 3.2468911564120564 1.096084989618487
1.3404709275118987 1.3934511819112356 0.3614249838370176 3.0200066291445755 0.597691127523346
1.2460435833031442 0.06567531345362643 2.4878198799860924 0.4387381927906975 1.9976396970108308
0.8905878713117643 4.381354154602651 4.600882954535891 4.599384644428199 2.7751227186545497
1.5579296262880105 0.6938913135071156 3.081299121882874 2.657662232098853 4.755769447168217
2.1783150852690496 4.545195062315648 3.605231918719574 2.3045469230886724 2.33432954402689
1.0916083811162058 3.5229446238798676 1.6821871794140109 2.250185334454973 2.613372930058972
1.216680578130691 4.317977555972771 2.863428397571327 1.1867420592969447 0.1850455764640463
2.084688590919817 3.0407284161400168 1.572401998292764 0.46781429983463074 1.9388218917430762
3.725583944573379 4.293077406411481 1.6729301090849495 3.9937726685991706 0.195437214844964
3.8448187180099396 3.1096641808567442 2.7057163251917604 1.208364379490972 3.6096337567585786
2.0136950399657048 2.642657653806591 2.3825023560282066 4.663732186337503 4.860616258468664
1.5514983003123728 4.852592523089533 3.4062354445370597 0.6613897301677074 0.8870584690097727
2.7573470511202434 3.1567101159237643 3.1839911382765247 3.1621445570291233 1.579404579450422
1.9849712519030454 3.9707346188082777 1.0026710064693012 3.4357406917994715 0.47846544183354933
4.182005901279368 0.0040560379337345465 0.33852903417226465 0.5184571598270626 1.8282061114887855
2.9304732887732343 2.256233429429591 4.819349874623146 0.2955648838423125 2.592838415243577
3.001041205858736 1.4797143477652392 4.106376007254041 3.4699222216536536 2.30434139960175
1.8290732232126046 2.8859887142224223 4.56544329741904 4.611133909548908 4.625466711881707
2.743701657560819 4.174628746014227 0.5450697509254698 0.46134313688579676 1.3456096640330173
4.593342285421274 4.944052038061024 3.502966646803462 3.7160960590824783 3.1577388625626894
3.6416993633591095 4.9468947227598274 4.50871713931123 0.6757032852524048 1.201481537519185
0.0021446127596574938 4.235764878859789 0.6409889226771504 1.829477697597783 1.428519306727039
0.09995774105066302 4.35442504502294 3.292422275816338 4.6127869547635045 1.912448773634342
1.026186953764151 2.128068616721022 1.6253727184020228 4.001240673269843 3.2755946961174356
0.13523153701475443 0.11484719394276366 0.23803853264987462 1.0596242096782826 0.08116133372303491
3.6741691245966495 0.8014059815771624 1.0440577842093912 4.13720629420401 4.37334925064535
1.113744418001802 2.6523798274514006 0.0926876860403264 3.7156537301555566 0.1673686466502261
4.762227037554859 1.2916263206546335 4.85523811269259 2.318419717204084 4.513713641016473
4.040003966450959 3.3019285761800976 1.4343553286615611 1.6173731092169001 2.2810125587512973
3.4234936135280636 3.2816815413586897 3.0417945639204103 2.070053311782191 0.6230905865863978
0.7783488866913368 2.223699135426052 0.3239497714825529 4.797825685504556 1.5211357886207755
2.470831186260053 0.9131810736708013 1.8794190235251762 3.055446536644145 3.1383405819693526
1.139579050760059 1.073540741416813 0.8388838244446228 2.937091914528877 0.20622101126358983
3.4778482712931247 1.7208194774935697 1.9939800923312752 3.790415400354078 4.757293010235336
3.825032096285039 0.8804454160173675 1.671142806390239 0.8724555215194335 4.5281615739463845
2.4333267232230615 2.537709959071706 1.7752278480437083 1.7549919552440603 1.758028601368336
3.3810425211019464 0.47137255294914415 3.59152171736066 1.407903344314985 2.055500957923611
4.400051795236441 1.2327158987211873 1.6674744033495141 3.192985633171302 2.425752969439125
0.38895048069932325 3.75782909606398 2.616076708086203 2.334744483547185 0.26135399799914805
2.658845810974918 3.5562667748700374 1.0493365022384948 1.4239166947680442 1.171201915386864
3.821267284302289 1.692425363425036 2.2231950462356496 4.870668712862121 0.721588392630037
1.3018784982847569 0.9854514530707997 4.612257356005235 0.8347445909347806 2.347760830073233
1.944023930137298 1.0252564729352065 0.590269356210501 3.9911399311614124 3.106058430285263
0.8564151992283897 2.4224710379982115 0.7237866086747291 1.2137262470515746 4.152696353543704
1.4831917302673707 3.182930119567273 1.7399517671861435 1.8711539019294694 4.60411803492699
2.801967119769931 4.14297381830707 3.730418993058967 2.1650769229927427 2.871679803787302
1.7929646202782745 0.4683502271065837 2.9341136356118196 2.524563329307272 2.5061987253217217
2.8649885864813456 4.1170200335261145 1.075052542506626 2.584718064465858 3.0211069826394876
1.5131908039765474 0.48027638905753234 3.184897030254106 4.301019512260067 3.5897620834218706
4.626359596663049 2.90099318278365 1.2808248862374927 1.1754647955895126 0.32481154881785823
3.741527701629882 3.206126800317735 4.9960746806132175 3.4739182472377395 3.167852646216047
1.9695526945436819 2.04866899796928 4.842181949599939 0.3908051295741305 3.989942904486843
0.8881615030642515 1.5900811535375077 3.9478286334854227 2.620780741738797 3.33692231976282
1.8916399012977019 4.160655321532918 4.835849476072295 2.019548703711378 3.5569612653786686
0.5506081198666796 1.1172539117459401 4.721705803343917 0.6485547732799263 4.691895857210945
3.7941067857565436 3.0959784953890486 1.2569485498271042 3.4529394149603903 0.09537015779930547
0.40237090858515623 2.2460228916364384 0.3631003954153722 2.23971377377624 3.1092864783945373
2.34734451283853 4.980819953700163 2.776856310354371 3.6390351453730787 0.8618874260420367
0.48997010696862464 4.072270278699338 0.8231701210773962 4.5504922997862804 1.7211529878939418
4.693033523140996 3.270981302332889 3.420864806969963 2.313739545129166 1.6246260456915873
0.7320626964118565 1.2136038910905156 0.11328649782483713 0.2612952721583639 1.520234628265209
2.8777066864136125 1.703795341138295 1.1474338629159013 4.653790640783929 3.4143699408126214
3.896951260569042 0.7417477155245344 0.4689599740365358 2.74385906453219 3.627656527115119
2.100651303799457 1.5413796117660494 4.714698662567518 4.664773571034717 0.7119931278411173
0.05265049847805625 1.8308532217138112 2.9164375637041795 2.839702140298349 1.3065067022196553
4.270996388403987 3.8845224929830566 2.5673921278897547 4.518123548557249 3.40668701580122
1.4227430681745585 2.468761217284303 3.510815664447829 0.8585527114200087 4.476113233273339
1.459986969265172 2.6008700260860254 0.8123294017918647 1.052031442136188 2.486082788564015
2.4068831014330003 3.182625968954956 0.8324520855168682 2.424625117627908 0.12068123774839179
0.8931152780760804 2.3848197144235526 0.23861107963562278 2.357947264341125 0.6053013658085832
1.4512183103276544 0.6736094230995254 2.6783240996866393 2.1883170771521057 0.09172157665730207
2.1005099631277506 1.0179535922179317 3.908934488148213 4.69046939972282 4.320043219292648
4.823299173777072 0.4604073862663871 0.039011746892099186 4.467209601283359 2.123455692108549
1.929552868040369 1.012321228813717 3.144786256248086 2.6889209905540308 2.340450618938364
3.6753965954767605 4.524716401792477 2.411234272939617 2.297649924966459 1.5305848972833092
3.8766350003105527 0.7090330239631076 1.0801188442118381 3.421500300850589 0.8117597057570375
3.2093895286914513 2.5968634980856935 2.6979477540317327 1.1900773048050834 1.655834942517385
1.9986789089713124 0.02543126309219601 4.441980557036404 1.6360626395316458 0.08408285405432314
1.4718279030948915 4.39271828109403 1.6660597293360646 2.2476842889508255 2.9152884863849016
0.314247431250268 3.8214846180266218 3.0822565130931445 2.63388572438493 1.926665296603297
2.7302618417574736 0.5668136042661082 2.827365858717146 2.04501597061105 1.890861909001983
1.2284935575717848 1.9603657374561556 4.4133200496604434 2.802540002958029 3.800599900423606
